# Spectrum H, 20 nm slit
# Spectrum #00053	4:16:37 PM 4/26/2018
# Wide scan: start 750nm, end 1249.7nm
# Monochromator settings: Grating: 1200 lines/mm; Slits: entrance 20um, exit 20um.
# DAQ device: PCI-6221; ADC bits: 16; Settling time: 10ms
# ADC input range: 10V max, -10V min. Sampling: 100 samples at 6.0006k/second.
# Wavelength (nm)    Signal (V)
750                  0.163069
750.38               0.155774
750.76               0.156728
751.14               0.14866
751.52               0.154167
751.9                0.148154
752.28               0.146064
752.66               0.159947
753.04               0.160911
753.42               0.158526
753.8                0.170547
754.18               0.159921
754.56               0.158802
754.94               0.17546
755.32               0.166191
755.7                0.162044
756.08               0.168658
756.46               0.165964
756.84               0.160642
757.22               0.160957
757.6                0.151691
757.98               0.159535
758.36               0.156754
758.74               0.15454
759.12               0.156063
759.5                0.148731
759.88               0.156066
760.26               0.165711
760.64               0.150834
761.02               0.158484
761.4                0.166389
761.78               0.167038
762.16               0.160788
762.54               0.166136
762.92               0.155693
763.3                0.15233
763.68               0.155388
764.06               0.146696
764.44               0.151331
764.82               0.170248
765.2                0.164773
765.58               0.161687
765.96               0.152567
766.34               0.150656
766.72               0.163306
767.1                0.172228
767.48               0.165439
767.86               0.154398
768.24               0.153145
768.62               0.151795
769                  0.162631
769.38               0.157461
769.76               0.1638
770.14               0.161541
770.52               0.174785
770.9                0.16106
771.28               0.158033
771.66               0.160944
772.04               0.156566
772.42               0.153505
772.8                0.14412
773.18               0.152434
773.56               0.153265
773.94               0.160768
774.32               0.156043
774.7                0.158558
775.08               0.159743
775.46               0.159665
775.84               0.163027
776.22               0.157867
776.6                0.159986
776.98               0.155985
777.36               0.33295
777.74               0.867268
778.12               0.841019
778.5                0.556473
778.88               0.396624
779.26               0.302819
779.64               0.244616
780.02               0.215612
780.4                0.188727
780.78               0.177271
781.16               0.162109
781.54               0.176544
781.92               0.162706
782.3                0.157406
782.68               0.16463
783.06               0.161729
783.44               0.162157
783.82               0.158058
784.2                0.151315
784.58               0.160911
784.96               0.155076
785.34               0.14433
785.72               0.156384
786.1                0.155537
786.48               0.159292
786.86               0.158123
787.24               0.150584
787.62               0.152363
788                  0.150779
788.38               0.145771
788.76               0.151727
789.14               0.154317
789.52               0.162495
789.9                0.155459
790.28               0.15197
790.66               0.154158
791.04               0.157182
791.42               0.158617
791.8                0.158493
792.18               0.155514
792.56               0.16341
792.94               0.160162
793.32               0.15764
793.7                0.154687
794.08               0.161083
794.46               0.159989
794.84               0.155504
795.22               0.158464
795.6                0.163975
795.98               0.161447
796.36               0.158422
796.74               0.158188
797.12               0.148734
797.5                0.147936
797.88               0.147083
798.26               0.148942
798.64               0.165533
799.02               0.161099
799.4                0.159415
799.78               0.160314
800.16               0.155306
800.54               0.159506
800.92               0.158458
801.3                0.151993
801.68               0.152457
802.06               0.151477
802.44               0.155456
802.82               0.15591
803.2                0.159464
803.58               0.162138
803.96               0.154213
804.34               0.157799
804.72               0.153106
805.1                0.159009
805.48               0.154638
805.86               0.155235
806.24               0.161576
806.62               0.167275
807                  0.152947
807.38               0.153677
807.76               0.161291
808.14               0.154381
808.52               0.152541
808.9                0.161132
809.28               0.160149
809.66               0.151571
810.04               0.149708
810.42               0.151152
810.8                0.155887
811.18               0.151863
811.56               0.154988
811.94               0.153534
812.32               0.154466
812.7                0.167061
813.08               0.165656
813.46               0.151045
813.84               0.153888
814.22               0.148222
814.6                0.151483
814.98               0.156316
815.36               0.146888
815.74               0.151977
816.12               0.150727
816.5                0.157448
816.88               0.170881
817.26               0.171949
817.64               0.15762
818.02               0.153038
818.4                0.149572
818.78               0.149273
819.16               0.152139
819.54               0.153778
819.92               0.152713
820.3                0.159438
820.68               0.160181
821.06               0.162144
821.44               0.161258
821.82               0.15235
822.2                0.144707
822.58               0.149698
822.96               0.161171
823.34               0.156043
823.72               0.156471
824.1                0.147157
824.48               0.152807
824.86               0.142341
825.24               0.148478
825.62               0.155715
826                  0.161336
826.38               0.154953
826.76               0.161476
827.14               0.156793
827.52               0.162914
827.9                0.165406
828.28               0.158867
828.66               0.161697
829.04               0.154716
829.42               0.153752
829.8                0.158243
830.18               0.152941
830.56               0.156371
830.94               0.149095
831.32               0.158876
831.7                0.155138
832.08               0.154774
832.46               0.159941
832.84               0.159496
833.22               0.146109
833.6                0.144821
833.98               0.142208
834.36               0.155365
834.74               0.162235
835.12               0.157841
835.5                0.165117
835.88               0.162979
836.26               0.15235
836.64               0.146972
837.02               0.153538
837.4                0.154102
837.78               0.15258
838.16               0.147764
838.54               0.152545
838.92               0.162368
839.3                0.157059
839.68               0.152739
840.06               0.154407
840.44               0.16367
840.82               0.16808
841.2                0.157442
841.58               0.152648
841.96               0.151947
842.34               0.150046
842.72               0.153541
843.1                0.157783
843.48               0.170336
843.86               0.16072
844.24               0.162024
844.62               0.163193
845                  0.478178
845.38               0.678844
845.76               0.463216
846.14               0.334089
846.52               0.256689
846.9                0.21201
847.28               0.17535
847.66               0.166535
848.04               0.165429
848.42               0.164296
848.8                0.170005
849.18               0.161599
849.56               0.16094
849.94               0.159305
850.32               0.157306
850.7                0.162437
851.08               0.162923
851.46               0.160742
851.84               0.166172
852.22               0.154988
852.6                0.159444
852.98               0.162157
853.36               0.166045
853.74               0.166175
854.12               0.158834
854.5                0.155329
854.88               0.156579
855.26               0.153291
855.64               0.158691
856.02               0.156066
856.4                0.157351
856.78               0.157163
857.16               0.152678
857.54               0.161197
857.92               0.163001
858.3                0.153268
858.68               0.154988
859.06               0.155154
859.44               0.149887
859.82               0.150026
860.2                0.149721
860.58               0.156231
860.96               0.153801
861.34               0.152963
861.72               0.15222
862.1                0.160233
862.48               0.147738
862.86               0.153927
863.24               0.146472
863.62               0.149173
864                  0.15481
864.38               0.149163
864.76               0.152165
865.14               0.145616
865.52               0.142179
865.9                0.145278
866.28               0.145369
866.66               0.148549
867.04               0.161025
867.42               0.15875
867.8                0.157997
868.18               0.177787
868.56               0.203666
868.94               0.18839
869.32               0.169054
869.7                0.158104
870.08               0.155121
870.46               0.150201
870.84               0.145596
871.22               0.146128
871.6                0.159104
871.98               0.1574
872.36               0.155306
872.74               0.165718
873.12               0.164234
873.5                0.159295
873.88               0.152694
874.26               0.156468
874.64               0.14522
875.02               0.152512
875.4                0.152103
875.78               0.149741
876.16               0.154372
876.54               0.150101
876.92               0.14827
877.3                0.164624
877.68               0.166464
878.06               0.162819
878.44               0.147754
878.82               0.155303
879.2                0.149663
879.58               0.148478
879.96               0.155813
880.34               0.156897
880.72               0.157484
881.1                0.165215
881.48               0.170518
881.86               0.154528
882.24               0.149747
882.62               0.151048
883                  0.151182
883.38               0.152055
883.76               0.159149
884.14               0.161356
884.52               0.155469
884.9                0.153012
885.28               0.151483
885.66               0.151513
886.04               0.152032
886.42               0.150169
886.8                0.145035
887.18               0.145862
887.56               0.151282
887.94               0.158084
888.32               0.155245
888.7                0.140209
889.08               0.150159
889.46               0.15125
889.84               0.153233
890.22               0.153236
890.6                0.15591
890.98               0.151934
891.36               0.147485
891.74               0.149575
892.12               0.156274
892.5                0.145145
892.88               0.15519
893.26               0.159467
893.64               0.157864
894.02               0.166117
894.4                0.166133
894.78               0.163138
895.16               0.167162
895.54               0.164991
895.92               0.164111
896.3                0.159662
896.68               0.157971
897.06               0.162352
897.44               0.154485
897.82               0.155173
898.2                0.147576
898.58               0.150072
898.96               0.15162
899.34               0.151389
899.72               0.151782
900.1                0.157299
900.48               0.16697
900.86               0.152022
901.24               0.143341
901.62               0.148546
902                  0.141799
902.38               0.148092
902.76               0.140838
903.14               0.145281
903.52               0.161525
903.9                0.156192
904.28               0.16146
904.66               0.162966
905.04               0.154086
905.42               0.155342
905.8                0.146953
906.18               0.155667
906.56               0.158282
906.94               0.151678
907.32               0.161268
907.7                0.16021
908.08               0.165202
908.46               0.160629
908.84               0.155449
909.22               0.163978
909.6                0.166665
909.98               0.162894
910.36               0.159938
910.74               0.163491
911.12               0.155472
911.5                0.151003
911.88               0.148855
912.26               0.146424
912.64               0.154125
913.02               0.15774
913.4                0.15124
913.78               0.150818
914.16               0.152499
914.54               0.154346
914.92               0.158685
915.3                0.161015
915.68               0.155261
916.06               0.161271
916.44               0.155621
916.82               0.162664
917.2                0.150308
917.58               0.149351
917.96               0.1542
918.34               0.156867
918.72               0.153379
919.1                0.150334
919.48               0.16476
919.86               0.163102
920.24               0.176191
920.62               0.168629
921                  0.164439
921.38               0.172137
921.76               0.168262
922.14               0.171462
922.52               0.1708
922.9                0.171417
923.28               0.168794
923.66               0.166195
924.04               0.161742
924.42               0.159808
924.8                0.176255
925.18               0.18004
925.56               0.184372
925.94               0.207496
926.32               0.188682
926.7                0.185884
927.08               0.169894
927.46               0.177891
927.84               0.174532
928.22               0.172806
928.6                0.164153
928.98               0.167853
929.36               0.166967
929.74               0.172257
930.12               0.172585
930.5                0.171582
930.88               0.176632
931.26               0.171167
931.64               0.163839
932.02               0.163423
932.4                0.167172
932.78               0.162326
933.16               0.160811
933.54               0.155057
933.92               0.164046
934.3                0.17718
934.68               0.173627
935.06               0.164309
935.44               0.182532
935.82               0.172978
936.2                0.167827
936.58               0.166123
936.96               0.161239
937.34               0.169898
937.72               0.165406
938.1                0.163845
938.48               0.161168
938.86               0.168032
939.24               0.168914
939.62               0.170761
940                  0.162524
940.38               0.159814
940.76               0.165692
941.14               0.164809
941.52               0.154605
941.9                0.1531
942.28               0.156812
942.66               0.152587
943.04               0.170462
943.42               0.16208
943.8                0.171358
944.18               0.174087
944.56               0.169447
944.94               0.167097
945.32               0.17167
945.7                0.160801
946.08               0.167555
946.46               0.168687
946.84               0.160041
947.22               0.163709
947.6                0.158286
947.98               0.164244
948.36               0.154579
948.74               0.153492
949.12               0.152902
949.5                0.15885
949.88               0.159808
950.26               0.165299
950.64               0.16476
951.02               0.157091
951.4                0.167798
951.78               0.17019
952.16               0.170576
952.54               0.167749
952.92               0.166191
953.3                0.172773
953.68               0.161609
954.06               0.167597
954.44               0.168681
954.82               0.158717
955.2                0.151081
955.58               0.146086
955.96               0.152152
956.34               0.149857
956.72               0.147965
957.1                0.15099
957.48               0.152652
957.86               0.160506
958.24               0.165004
958.62               0.158805
959                  0.147907
959.38               0.153255
959.76               0.149192
960.14               0.152704
960.52               0.158026
960.9                0.160661
961.28               0.15688
961.66               0.150665
962.04               0.147433
962.42               0.151798
962.8                0.145028
963.18               0.151217
963.56               0.156631
963.94               0.151019
964.32               0.147871
964.7                0.144395
965.08               0.15345
965.46               0.157529
965.84               0.156342
966.22               0.152126
966.6                0.155829
966.98               0.149536
967.36               0.153259
967.74               0.147956
968.12               0.14238
968.5                0.145268
968.88               0.148134
969.26               0.151616
969.64               0.149939
970.02               0.149091
970.4                0.150743
970.78               0.147907
971.16               0.157552
971.54               0.150458
971.92               0.150717
972.3                0.202163
972.68               0.240089
973.06               0.199006
973.44               0.171498
973.82               0.172494
974.2                0.17081
974.58               0.158516
974.96               0.160441
975.34               0.156176
975.72               0.155089
976.1                0.154456
976.48               0.152493
976.86               0.157046
977.24               0.157705
977.62               0.153327
978                  0.149552
978.38               0.150072
978.76               0.143208
979.14               0.162462
979.52               0.162881
979.9                0.166263
980.28               0.155527
980.66               0.157474
981.04               0.156923
981.42               0.153148
981.8                0.150562
982.18               0.144613
982.56               0.147982
982.94               0.1452
983.32               0.144567
983.7                0.154268
984.08               0.155689
984.46               0.156471
984.84               0.151386
985.22               0.158974
985.6                0.164549
985.98               0.1494
986.36               0.15061
986.74               0.155719
987.12               0.159454
987.5                0.155199
987.88               0.151009
988.26               0.153304
988.64               0.153982
989.02               0.157465
989.4                0.155839
989.78               0.160002
990.16               0.160317
990.54               0.155082
990.92               0.150565
991.3                0.149189
991.68               0.149416
992.06               0.153606
992.44               0.151334
992.82               0.144327
993.2                0.141098
993.58               0.154872
993.96               0.148167
994.34               0.146865
994.72               0.151237
995.1                0.150516
995.48               0.145184
995.86               0.153898
996.24               0.156325
996.62               0.155722
997                  0.155031
997.38               0.146992
997.76               0.148056
998.14               0.15393
998.52               0.167785
998.9                0.174545
999.28               0.162011
999.66               0.155949
1000.04              0.153502
1000.42              0.14928
1000.8               0.156387
1001.18              0.157731
1001.56              0.148906
1001.94              0.148377
1002.32              0.145372
1002.7               0.146638
1003.08              0.152541
1003.46              0.159052
1003.84              0.160652
1004.22              0.160963
1004.6               0.166039
1004.98              0.157714
1005.36              0.148988
1005.74              0.151584
1006.12              0.153749
1006.5               0.159967
1006.88              0.16526
1007.26              0.162703
1007.64              0.158831
1008.02              0.152902
1008.4               0.156887
1008.78              0.162011
1009.16              0.159301
1009.54              0.158708
1009.92              0.155147
1010.3               0.150477
1010.68              0.160509
1011.06              0.161635
1011.44              0.161593
1011.82              0.152519
1012.2               0.151065
1012.58              0.151448
1012.96              0.149283
1013.34              0.148283
1013.72              0.154002
1014.1               0.156082
1014.48              0.154057
1014.86              0.155446
1015.24              0.144681
1015.62              0.13782
1016                 0.147472
1016.38              0.150539
1016.76              0.152382
1017.14              0.146028
1017.52              0.143558
1017.9               0.146888
1018.28              0.148829
1018.66              0.161258
1019.04              0.158795
1019.42              0.158578
1019.8               0.158328
1020.18              0.154583
1020.56              0.147216
1020.94              0.150231
1021.32              0.148605
1021.7               0.150403
1022.08              0.15701
1022.46              0.162235
1022.84              0.143201
1023.22              0.152723
1023.6               0.164338
1023.98              0.163157
1024.36              0.15579
1024.74              0.165572
1025.12              0.157961
1025.5               0.152937
1025.88              0.162148
1026.26              0.151204
1026.64              0.152895
1027.02              0.142838
1027.4               0.14941
1027.78              0.150847
1028.16              0.153414
1028.54              0.161979
1028.92              0.157432
1029.3               0.156481
1029.68              0.165471
1030.06              0.158351
1030.44              0.156231
1030.82              0.160051
1031.2               0.161307
1031.58              0.153226
1031.96              0.151279
1032.34              0.145927
1032.72              0.159269
1033.1               0.157474
1033.48              0.166328
1033.86              0.163618
1034.24              0.161392
1034.62              0.164712
1035                 0.157121
1035.38              0.157082
1035.76              0.151568
1036.14              0.150578
1036.52              0.149627
1036.9               0.147962
1037.28              0.157922
1037.66              0.146872
1038.04              0.152587
1038.42              0.151052
1038.8               0.145048
1039.18              0.150357
1039.56              0.143341
1039.94              0.150539
1040.32              0.146894
1040.7               0.153366
1041.08              0.159467
1041.46              0.148533
1041.84              0.14853
1042.22              0.153096
1042.6               0.151944
1042.98              0.143954
1043.36              0.146359
1043.74              0.145892
1044.12              0.142513
1044.5               0.142815
1044.88              0.146433
1045.26              0.147216
1045.64              0.147183
1046.02              0.145103
1046.4               0.154021
1046.78              0.144928
1047.16              0.150675
1047.54              0.144924
1047.92              0.155654
1048.3               0.161304
1048.68              0.162706
1049.06              0.174149
1049.44              0.166672
1049.82              0.168593
1050.2               0.163881
1050.58              0.159097
1050.96              0.159444
1051.34              0.157065
1051.72              0.160239
1052.1               0.164952
1052.48              0.154151
1052.86              0.151873
1053.24              0.146661
1053.62              0.143019
1054                 0.142815
1054.38              0.153421
1054.76              0.152408
1055.14              0.146203
1055.52              0.153814
1055.9               0.155534
1056.28              0.171309
1056.66              0.165636
1057.04              0.169875
1057.42              0.168106
1057.8               0.16514
1058.18              0.160334
1058.56              0.163079
1058.94              0.168372
1059.32              0.166805
1059.7               0.163644
1060.08              0.158123
1060.46              0.152506
1060.84              0.161434
1061.22              0.155926
1061.6               0.157335
1061.98              0.153554
1062.36              0.152308
1062.74              0.150984
1063.12              0.159535
1063.5               0.149309
1063.88              0.145119
1064.26              0.155368
1064.64              0.159587
1065.02              0.158081
1065.4               0.155251
1065.78              0.161382
1066.16              0.156319
1066.54              0.145853
1066.92              0.148433
1067.3               0.157757
1067.68              0.162183
1068.06              0.158568
1068.44              0.159425
1068.82              0.165857
1069.2               0.158669
1069.58              0.157692
1069.96              0.153554
1070.34              0.170031
1070.72              0.158266
1071.1               0.155125
1071.48              0.154177
1071.86              0.158919
1072.24              0.163436
1072.62              0.159808
1073                 0.152399
1073.38              0.152353
1073.76              0.162057
1074.14              0.1655
1074.52              0.157539
1074.9               0.163079
1075.28              0.151626
1075.66              0.158331
1076.04              0.155842
1076.42              0.148549
1076.8               0.151814
1077.18              0.154252
1077.56              0.159457
1077.94              0.16096
1078.32              0.16109
1078.7               0.147621
1079.08              0.1511
1079.46              0.158412
1079.84              0.150263
1080.22              0.154502
1080.6               0.152175
1080.98              0.150075
1081.36              0.146722
1081.74              0.148176
1082.12              0.156556
1082.5               0.162362
1082.88              0.149705
1083.26              0.154807
1083.64              0.160411
1084.02              0.159422
1084.4               0.149598
1084.78              0.143574
1085.16              0.158013
1085.54              0.166545
1085.92              0.162826
1086.3               0.160648
1086.68              0.162904
1087.06              0.160246
1087.44              0.154884
1087.82              0.160785
1088.2               0.162417
1088.58              0.166253
1088.96              0.163141
1089.34              0.163485
1089.72              0.165185
1090.1               0.165961
1090.48              0.163881
1090.86              0.163413
1091.24              0.158704
1091.62              0.161103
1092                 0.160385
1092.38              0.164987
1092.76              0.159899
1093.14              0.167882
1093.52              0.148572
1093.9               0.146521
1094.28              0.149763
1094.66              0.15024
1095.04              0.149549
1095.42              0.142477
1095.8               0.139634
1096.18              0.147209
1096.56              0.156806
1096.94              0.153051
1097.32              0.143685
1097.7               0.147255
1098.08              0.143457
1098.46              0.164968
1098.84              0.160694
1099.22              0.151788
1099.6               0.160119
1099.98              0.160038
1100.36              0.149176
1100.74              0.152678
1101.12              0.146356
1101.5               0.142782
1101.88              0.149828
1102.26              0.15826
1102.64              0.157633
1103.02              0.15836
1103.4               0.15839
1103.78              0.161525
1104.16              0.159006
1104.54              0.151892
1104.92              0.158617
1105.3               0.155602
1105.68              0.156618
1106.06              0.153865
1106.44              0.154982
1106.82              0.156598
1107.2               0.157848
1107.58              0.148988
1107.96              0.154459
1108.34              0.157033
1108.72              0.160113
1109.1               0.15442
1109.48              0.159529
1109.86              0.157916
1110.24              0.148377
1110.62              0.143055
1111                 0.146726
1111.38              0.157779
1111.76              0.155196
1112.14              0.154716
1112.52              0.146508
1112.9               0.151577
1113.28              0.154171
1113.66              0.150863
1114.04              0.159899
1114.42              0.159882
1114.8               0.147433
1115.18              0.145752
1115.56              0.140975
1115.94              0.149176
1116.32              0.14041
1116.7               0.144571
1117.08              0.153794
1117.46              0.156582
1117.84              0.155005
1118.22              0.153135
1118.6               0.150468
1118.98              0.143616
1119.36              0.149614
1119.74              0.151876
1120.12              0.153554
1120.5               0.145324
1120.88              0.150581
1121.26              0.148848
1121.64              0.144405
1122.02              0.152106
1122.4               0.156754
1122.78              0.153622
1123.16              0.15346
1123.54              0.154524
1123.92              0.156082
1124.3               0.148118
1124.68              0.148313
1125.06              0.145567
1125.44              0.151324
1125.82              0.145875
1126.2               0.145038
1126.58              0.145655
1126.96              0.137982
1127.34              0.149737
1127.72              0.155793
1128.1               0.150081
1128.48              0.149569
1128.86              0.141961
1129.24              0.142773
1129.62              0.142513
1130                 0.14593
1130.38              0.155027
1130.76              0.146995
1131.14              0.146765
1131.52              0.148222
1131.9               0.138184
1132.28              0.141208
1132.66              0.1515
1133.04              0.14496
1133.42              0.14903
1133.8               0.14853
1134.18              0.151714
1134.56              0.156777
1134.94              0.152762
1135.32              0.154849
1135.7               0.157319
1136.08              0.160856
1136.46              0.157945
1136.84              0.150029
1137.22              0.162612
1137.6               0.16341
1137.98              0.157679
1138.36              0.161778
1138.74              0.159996
1139.12              0.153499
1139.5               0.154024
1139.88              0.15356
1140.26              0.154878
1140.64              0.16624
1141.02              0.159753
1141.4               0.156926
1141.78              0.160074
1142.16              0.157685
1142.54              0.152983
1142.92              0.146609
1143.3               0.144574
1143.68              0.146145
1144.06              0.158357
1144.44              0.1622
1144.82              0.165322
1145.2               0.164111
1145.58              0.160353
1145.96              0.148472
1146.34              0.15395
1146.72              0.15161
1147.1               0.148248
1147.48              0.158587
1147.86              0.155115
1148.24              0.15728
1148.62              0.162771
1149                 0.149637
1149.38              0.149591
1149.76              0.154602
1150.14              0.164919
1150.52              0.163897
1150.9               0.164699
1151.28              0.167464
1151.66              0.166214
1152.04              0.160363
1152.42              0.151688
1152.8               0.156754
1153.18              0.151302
1153.56              0.151853
1153.94              0.155514
1154.32              0.151857
1154.7               0.150802
1155.08              0.138865
1155.46              0.145161
1155.84              0.146914
1156.22              0.148955
1156.6               0.148329
1156.98              0.146732
1157.36              0.152207
1157.74              0.148605
1158.12              0.15147
1158.5               0.160674
1158.88              0.146437
1159.26              0.155608
1159.64              0.147543
1160.02              0.150792
1160.4               0.155352
1160.78              0.158399
1161.16              0.159091
1161.54              0.163501
1161.92              0.167772
1162.3               0.17326
1162.68              0.15874
1163.06              0.153807
1163.44              0.144999
1163.82              0.146521
1164.2               0.146463
1164.58              0.150373
1164.96              0.151577
1165.34              0.151918
1165.72              0.15445
1166.1               0.161427
1166.48              0.168444
1166.86              0.168207
1167.24              0.157383
1167.62              0.154969
1168                 0.15777
1168.38              0.149728
1168.76              0.140507
1169.14              0.150117
1169.52              0.15442
1169.9               0.159756
1170.28              0.15763
1170.66              0.151042
1171.04              0.14779
1171.42              0.152051
1171.8               0.153288
1172.18              0.156433
1172.56              0.160577
1172.94              0.153005
1173.32              0.150523
1173.7               0.154239
1174.08              0.152681
1174.46              0.160694
1174.84              0.155719
1175.22              0.161648
1175.6               0.158529
1175.98              0.156803
1176.36              0.154777
1176.74              0.15356
1177.12              0.153489
1177.5               0.15161
1177.88              0.144415
1178.26              0.148806
1178.64              0.14977
1179.02              0.155384
1179.4               0.155741
1179.78              0.161515
1180.16              0.160827
1180.54              0.169064
1180.92              0.15947
1181.3               0.154492
1181.68              0.15345
1182.06              0.162849
1182.44              0.150834
1182.82              0.147813
1183.2               0.152506
1183.58              0.143269
1183.96              0.151207
1184.34              0.150412
1184.72              0.145041
1185.1               0.15714
1185.48              0.149062
1185.86              0.164919
1186.24              0.158214
1186.62              0.147534
1187                 0.149646
1187.38              0.148903
1187.76              0.159629
1188.14              0.155741
1188.52              0.154255
1188.9               0.153236
1189.28              0.157646
1189.66              0.156014
1190.04              0.155303
1190.42              0.158854
1190.8               0.147861
1191.18              0.155102
1191.56              0.160863
1191.94              0.157234
1192.32              0.146894
1192.7               0.15788
1193.08              0.154755
1193.46              0.155157
1193.84              0.154326
1194.22              0.153768
1194.6               0.157727
1194.98              0.15356
1195.36              0.154005
1195.74              0.148111
1196.12              0.155641
1196.5               0.152934
1196.88              0.150708
1197.26              0.158698
1197.64              0.155488
1198.02              0.157818
1198.4               0.153973
1198.78              0.15542
1199.16              0.147673
1199.54              0.154972
1199.92              0.162144
1200.3               0.16477
1200.68              0.16635
1201.06              0.164666
1201.44              0.159094
1201.82              0.151052
1202.2               0.153379
1202.58              0.155073
1202.96              0.152928
1203.34              0.152236
1203.72              0.148582
1204.1               0.150604
1204.48              0.151532
1204.86              0.148731
1205.24              0.153281
1205.62              0.151577
1206                 0.160544
1206.38              0.153213
1206.76              0.161843
1207.14              0.156105
1207.52              0.154518
1207.9               0.1574
1208.28              0.168337
1208.66              0.163654
1209.04              0.154222
1209.42              0.158711
1209.8               0.153762
1210.18              0.158545
1210.56              0.15811
1210.94              0.161226
1211.32              0.161541
1211.7               0.150231
1212.08              0.1547
1212.46              0.157984
1212.84              0.15371
1213.22              0.149273
1213.6               0.148342
1213.98              0.154664
1214.36              0.161875
1214.74              0.164948
1215.12              0.16257
1215.5               0.151097
1215.88              0.154349
1216.26              0.153129
1216.64              0.146706
1217.02              0.149384
1217.4               0.153554
1217.78              0.158149
1218.16              0.151733
1218.54              0.153499
1218.92              0.145749
1219.3               0.149867
1219.68              0.162135
1220.06              0.170621
1220.44              0.158578
1220.82              0.148605
1221.2               0.153878
1221.58              0.165202
1221.96              0.158808
1222.34              0.156299
1222.72              0.156614
1223.1               0.15273
1223.48              0.141702
1223.86              0.150409
1224.24              0.145294
1224.62              0.148537
1225                 0.146333
1225.38              0.15371
1225.76              0.157108
1226.14              0.150578
1226.52              0.1505
1226.9               0.157341
1227.28              0.153327
1227.66              0.16514
1228.04              0.154502
1228.42              0.16245
1228.8               0.160674
1229.18              0.154219
1229.56              0.160548
1229.94              0.163774
1230.32              0.172056
1230.7               0.166682
1231.08              0.158737
1231.46              0.161528
1231.84              0.170154
1232.22              0.160785
1232.6               0.157221
1232.98              0.164728
1233.36              0.160087
1233.74              0.171157
1234.12              0.164712
1234.5               0.172121
1234.88              0.168012
1235.26              0.173075
1235.64              0.17461
1236.02              0.164961
1236.4               0.17533
1236.78              0.17362
1237.16              0.166422
1237.54              0.159743
1237.92              0.159915
1238.3               0.162602
1238.68              0.160824
1239.06              0.154638
1239.44              0.17142
1239.82              0.164621
1240.2               0.16956
1240.58              0.165529
1240.96              0.167512
1241.34              0.169135
1241.72              0.159295
1242.1               0.154255
1242.48              0.16858
1242.86              0.160645
1243.24              0.160707
1243.62              0.152278
1244                 0.15531
1244.38              0.154336
1244.76              0.164436
1245.14              0.160311
1245.52              0.158299
1245.9               0.159285
1246.28              0.166678
1246.66              0.161628
1247.04              0.156338
1247.42              0.148783
1247.8               0.157848
1248.18              0.148858
1248.56              0.149604
1248.94              0.148348
1249.32              0.156108
1249.7               0.155923
