# Resistivity Experiment v3.0
# 
# Data Acquisition Unit: Agilent Model 34970A
# Start Time: 1:50:47.002 PM 5/24/2018 ; Start Temp: 298.9410 K
# Time (s)   Temp (K)         R1         R2         R3         R4         R5
  0.000000   298.9410   1128.727   2703.117   5.653136   39427.98   26.89273
  1.120000   298.9390   1128.727   2703.054   5.653896   39427.23   26.89267
  2.200000   298.9410   1128.729   2703.086   5.653643   39428.05   26.89286
  3.698000   298.9410   1128.727   2703.079   5.653199   39427.67   26.89241
  5.277000   298.9410   1128.727   2703.079   5.652820   39428.05   26.89286
  6.704000   298.9410   1128.727   2703.067   5.652503   39428.80   26.89273
  8.206000   298.9420   1128.728   2703.086   5.653326   39428.49   26.89292
  9.706000   298.9400   1128.727   2703.086   5.652756   39428.68   26.89222
  11.19800   298.9400   1128.729   2703.079   5.653073   39429.82   26.89248
  12.76800   298.9400   1128.725   2703.067   5.653263   39429.69   26.89172
  14.19700   298.9390   1128.729   2703.098   5.653833   39429.31   26.89248
  15.76900   298.9400   1128.727   2703.117   5.652630   39429.94   26.89203
  17.26900   298.9420   1128.727   2703.111   5.653453   39430.20   26.89330
  18.69700   298.9400   1128.724   2703.092   5.652630   39429.69   26.89267
  20.19600   298.9380   1128.722   2703.105   5.652756   39430.70   26.89241
  21.69500   298.9380   1128.715   2703.111   5.653390   39433.36   26.89222
  23.19500   298.9070   1128.667   2703.098   5.652503   39442.89   26.89298
  24.69600   298.7680   1128.425   2703.098   5.652439   39526.73   26.89216
  26.19500   298.7680   1127.749   2703.092   5.651110   39598.25   26.89267
  27.69600   298.7690   1128.209   2703.105   5.650413   39624.98   26.89216
  29.26700   298.7590   1128.019   2703.124   5.650793   39638.75   26.89292
  30.69600   298.7200   1128.140   2703.124   5.648957   39686.39   26.89216
  32.19600   298.7070   1127.791   2703.105   5.649082   39747.36   26.89229
  33.76900   298.7050   1127.575   2703.124   5.648829   39768.15   26.89210
  35.26700   298.6830   1127.575   2703.156   5.648830   39782.74   26.89279
  36.69500   298.6610   1127.488   2703.175   5.648196   39811.80   26.89254
  38.26700   298.6410   1127.533   2703.187   5.647942   39842.32   26.89311
  39.69700   298.5870   1127.586   2703.181   5.647372   39882.00   26.89260
  41.58500   298.6160   1127.324   2703.156   5.645789   39900.58   26.89191
  42.70500   298.6080   1127.399   2703.187   5.646929   39937.09   26.89191
  44.19700   298.6150   1127.306   2703.194   5.646550   39951.94   26.89286
  45.69400   298.5770   1127.275   2703.200   5.646676   40001.98   26.89267
  47.19400   298.5740   1127.048   2703.206   5.645346   40014.55   26.89267
  48.69400   298.5130   1127.190   2703.225   5.645726   40064.72   26.89235
  50.19500   298.5150   1126.819   2703.181   5.645156   40156.71   26.89254
  51.68800   298.5250   1126.755   2703.231   5.644460   40156.71   26.89229
  53.19400   298.4710   1126.788   2703.231   5.643953   40177.88   26.89279
  54.68800   298.4600   1126.495   2703.250   5.643319   40288.06   26.89254
  56.19600   298.3270   1126.768   2703.270   5.642876   40303.16   26.89324
  57.68800   298.2870   1126.648   2703.282   5.643509   40297.29   26.89298
  59.18600   298.3790   1126.620   2703.244   5.642053   40314.03   26.89355
  60.68600   298.3810   1126.397   2703.244   5.641925   40338.55   26.89298
  62.19500   298.3350   1126.364   2703.270   5.641672   40357.62   26.89368
  63.69500   298.3170   1126.324   2703.250   5.640913   40399.39   26.89267
  65.19200   298.3520   1126.297   2703.269   5.640279   40418.03   26.89305
  66.69300   298.3290   1126.307   2703.270   5.639203   40430.66   26.89324
  68.18700   298.3330   1126.308   2703.250   5.640469   40437.36   26.89298
  69.69500   298.3230   1126.255   2703.301   5.640595   40449.62   26.89203
  71.19400   298.3260   1126.237   2703.295   5.640279   40467.43   26.89336
  72.69400   298.2970   1126.159   2703.289   5.639582   40482.98   26.89222
  74.19400   298.2920   1126.104   2703.289   5.639202   40498.01   26.89235
  75.69400   298.2870   1126.077   2703.270   5.639709   40519.81   26.89222
  77.46300   298.2860   1125.927   2703.314   5.638696   40573.07   26.89235
  78.69400   298.2870   1126.064   2703.339   5.638442   40568.27   26.89317
  80.19400   298.2220   1125.953   2703.320   5.638126   40573.96   26.89273
  81.69400   298.2540   1126.033   2703.358   5.638569   40584.95   26.89229
  83.18700   298.2190   1125.940   2703.320   5.638378   40641.31   26.89292
  84.68800   298.2320   1125.913   2703.339   5.637238   40650.85   26.89298
  86.19500   298.1300   1125.586   2703.326   5.638696   40655.14   26.89330
  87.69500   298.0430   1125.301   2703.320   5.637808   40717.25   26.89279
  89.19200   298.0420   1125.512   2703.339   5.635908   40785.93   26.89241
  90.68700   298.1050   1125.113   2703.358   5.635972   40814.61   26.89336
  92.18600   298.0660   1125.181   2703.326   5.635782   40840.96   26.89197
  93.69300   298.0840   1124.632   2703.371   5.635592   40856.63   26.89229
  95.19300   298.0790   1125.143   2703.377   5.634072   40881.84   26.89241
  96.69300   298.0690   1125.106   2703.365   5.635022   40908.69   26.89279
  98.28300   298.0210   1124.755   2703.365   5.633375   40930.43   26.89279
  99.68500   297.9580   1124.886   2703.377   5.632741   40956.07   26.89273
  101.1930   297.9720   1124.717   2703.384   5.633122   41052.87   26.89235
  102.6930   297.9860   1124.329   2703.421   5.632299   41062.60   26.89203
  104.1870   297.9350   1124.760   2703.409   5.632678   41093.37   26.89260
  105.6860   297.9130   1124.533   2703.409   5.632932   41232.74   26.89229
  107.1910   297.9220   1121.440   2703.219   5.631349   41244.68   26.89317
  108.6930   297.8820   1124.264   2703.599   5.631348   41255.80   26.89349
  110.1870   297.7730   1124.288   2703.504   5.630525   41272.86   26.89222
  111.6860   297.7410   1123.949   2703.517   5.628688   41420.71   26.89330
  113.1930   297.7490   1123.734   2703.542   5.627928   41440.73   26.89286
  114.6910   297.6740   1123.543   2703.542   5.627675   41481.30   26.89235
  116.1910   297.7180   1123.726   2703.536   5.627865   41498.73   26.89254
  117.6930   297.7070   1123.502   2703.472   5.626978   41530.07   26.89229
  119.6920   297.5890   1123.545   2703.510   5.625902   41735.79   26.89317
  121.1910   297.6160   1123.367   2703.517   5.625711   41748.11   26.89343
  122.6930   297.6230   1123.288   2703.542   5.624255   41744.95   26.89248
  124.3890   297.5730   1123.144   2703.535   5.623685   41773.51   26.89254
  125.6850   297.5720   1123.007   2703.523   5.623747   41792.52   26.89254
  127.1940   297.5290   1122.938   2703.517   5.623241   41809.08   26.89248
  128.6840   297.5200   1123.035   2703.554   5.623811   41831.38   26.89254
  130.1910   297.4900   1123.007   2703.567   5.622354   41851.73   26.89286
  131.7190   297.4620   1122.822   2703.529   5.621721   41911.87   26.89336
  133.1850   297.4680   1122.728   2703.548   5.621531   41977.71   26.89235
  134.6860   297.5050   1122.312   2703.580   5.621405   41982.01   26.89235
  136.1920   297.5070   1122.597   2703.593   5.621468   41981.82   26.89298
  137.6920   297.4960   1122.695   2703.605   5.621214   41981.75   26.89317
  139.1840   297.4930   1122.698   2703.593   5.621785   41981.44   26.89260
  140.6930   297.4620   1122.713   2703.580   5.621214   41984.03   26.89235
  142.1910   297.4870   1122.679   2703.555   5.621847   41986.68   26.89229
  143.6920   297.4890   1122.679   2703.593   5.621404   41991.68   26.89273
  145.2250   297.4640   1122.301   2703.586   5.621848   42002.79   26.89279
  146.6840   297.3170   1122.348   2703.561   5.620708   42080.06   26.89279
  148.1840   297.3870   1122.136   2703.580   5.619884   42108.12   26.89178
  149.6840   297.3720   1122.299   2703.612   5.619758   42130.23   26.89311
  151.1900   297.2370   1122.165   2703.618   5.618807   42153.80   26.89336
  152.6920   297.3500   1122.079   2703.586   5.619378   42170.92   26.89197
  154.1900   297.3330   1122.119   2703.618   5.618807   42205.98   26.89241
  155.6900   297.3330   1121.980   2703.605   5.618934   42228.79   26.89197
  157.1900   297.3340   1121.858   2703.605   5.619251   42255.39   26.89267
  158.6920   297.2530   1121.864   2703.605   5.618300   42278.77   26.89260
  161.0570   297.3020   1121.782   2703.656   5.617794   42304.29   26.89317
  162.2020   297.2990   1121.697   2703.650   5.617984   42337.71   26.89248
  163.6850   297.2600   1121.752   2703.637   5.617604   42343.65   26.89260
  165.1910   297.2230   1120.917   2703.624   5.617540   42364.44   26.89298
  166.6920   297.2730   1121.731   2703.656   5.617287   42383.84   26.89292
  168.1900   297.2550   1121.516   2703.637   5.617224   42408.29   26.89286
  169.6840   297.2440   1121.663   2703.662   5.616147   42416.63   26.89235
  171.1970   297.2630   1121.503   2703.656   5.616717   42415.74   26.89298
  172.6840   297.2300   1121.367   2703.656   5.616908   42419.98   26.89324
  174.1910   297.2400   1121.622   2703.681   5.616654   42430.09   26.89292
  175.6910   297.2400   1121.636   2703.656   5.616780   42442.21   26.89343
  177.1830   297.2050   1121.410   2703.643   5.614880   42457.57   26.89286
  178.6910   297.2230   1121.549   2703.656   5.616084   42465.59   26.89248
  180.1900   297.2250   1121.560   2703.675   5.616464   42475.89   26.89336
  181.6910   297.2230   1121.547   2703.675   5.615451   42480.63   26.89368
  183.1890   297.1930   1121.505   2703.656   5.615387   42496.05   26.89305
  184.6810   297.2050   1121.452   2703.669   5.615134   42504.39   26.89197
  186.1910   297.2020   1121.486   2703.681   5.616021   42511.84   26.89260
  187.6890   297.1990   1121.412   2703.643   5.615578   42517.97   26.89241
  189.1890   297.2020   1121.426   2703.675   5.614564   42524.86   26.89279
  190.6910   297.1940   1121.395   2703.669   5.615577   42529.47   26.89222
  192.1910   297.1810   1121.401   2703.694   5.615387   42534.46   26.89241
  193.6850   297.1780   1121.162   2703.662   5.614564   42545.64   26.89229
  195.1890   297.0660   1120.652   2703.669   5.614374   42620.89   26.89216
  196.6890   297.0540   1120.792   2703.681   5.612980   42672.89   26.89298
  198.1820   297.0350   1120.384   2703.732   5.613424   42724.51   26.89292
  199.6890   297.0100   1120.604   2703.707   5.612474   42764.06   26.89336
  201.1820   297.0010   1120.553   2703.751   5.611397   42793.37   26.89330
  202.6900   296.9850   1120.614   2703.757   5.611460   42826.86   26.89260
  204.1880   296.9560   1120.516   2703.745   5.610701   42863.57   26.89286
  205.6850   296.9430   1120.277   2703.694   5.610067   42992.52   26.89298
  207.3800   296.9130   1120.210   2703.776   5.610763   43001.30   26.89273
  208.6920   296.9200   1120.030   2703.795   5.610004   43127.79   26.89305
  210.1870   296.9010   1118.791   2703.808   5.609624   43115.41   26.89260
  211.6880   296.8630   1120.094   2703.808   5.608737   43109.53   26.89260
  213.1810   296.8160   1119.958   2703.795   5.608230   43159.26   26.89254
  214.6820   296.8560   1120.030   2703.802   5.608546   43168.10   26.89317
  216.1830   296.8520   1119.977   2703.795   5.608103   43163.68   26.89216
  217.6900   296.8570   1119.903   2703.802   5.607470   43166.96   26.89229
  219.1880   296.8210   1119.911   2703.795   5.609243   43203.17   26.89298
  220.6820   296.8290   1119.582   2703.789   5.605950   43203.73   26.89235
  222.2000   296.8110   1119.797   2703.802   5.607280   43235.83   26.89222
  223.6890   296.7920   1119.663   2703.795   5.606520   43247.84   26.89260
  225.1880   296.7680   1119.544   2703.808   5.606583   43273.68   26.89317
  226.6860   296.7210   1119.537   2703.814   5.605696   43315.37   26.89330
  228.1880   296.7630   1119.199   2703.808   5.604810   43321.70   26.89229
  229.6880   296.7140   1119.477   2703.833   5.605570   43341.85   26.89260
  231.1880   296.7340   1119.476   2703.840   5.605887   43382.66   26.89324
  232.6900   296.6080   1118.973   2703.833   5.604873   43405.98   26.89267
  234.1800   296.6310   1118.602   2703.840   5.603860   43477.43   26.89305
  235.6910   296.5480   1118.770   2703.871   5.602909   43609.61   26.89292
  237.1810   296.4990   1118.240   2703.878   5.602403   43761.68   26.89368
  238.6900   296.4850   1118.328   2703.922   5.601770   43801.49   26.89273
  240.1870   296.4770   1118.287   2703.916   5.600883   43825.69   26.89241
  241.6900   296.4170   1117.536   2703.903   5.600503   43861.45   26.89273
  243.1880   296.2700   1117.500   2703.922   5.599743   43984.71   26.89248
  244.6900   296.3280   1116.978   2703.986   5.597019   44048.65   26.89298
  246.1860   296.2200   1117.646   2703.979   5.597146   44115.62   26.89279
  247.6880   296.0300   1117.549   2704.017   5.595626   44165.60   26.89355
  249.1810   296.1470   1117.078   2703.985   5.593916   44227.20   26.89330
  250.6890   295.9320   1116.720   2703.992   5.593979   44336.70   26.89298
  252.1950   296.1400   1116.753   2704.068   5.592839   44409.23   26.89305
  253.6870   296.1210   1115.910   2704.068   5.592712   44439.93   26.89406
  255.1890   296.0740   1116.450   2704.087   5.591762   44500.20   26.89336
  256.6890   296.0190   1116.465   2704.049   5.589355   44562.95   26.89324
  258.1870   296.0490   1114.894   2704.068   5.590179   44653.93   26.89279
  259.6870   296.0270   1115.937   2704.131   5.590052   44686.52   26.89317
  261.1870   295.9820   1115.235   2704.137   5.589863   44776.62   26.89298
  262.6800   295.9180   1114.640   2704.163   5.588659   44867.16   26.89349
  264.1790   295.7950   1115.463   2704.207   5.586759   44991.43   26.89248
  265.6790   295.6530   1114.545   2704.207   5.585049   45185.28   26.89248
  267.1870   295.6920   1114.934   2704.232   5.584352   45239.30   26.89229
  268.6850   295.6060   1114.457   2704.220   5.582832   45362.05   26.89374
  270.1870   295.5500   1113.763   2704.188   5.582072   45613.20   26.89349
  271.6870   295.5590   1113.908   2704.290   5.582135   45639.48   26.89330
  273.1860   295.3650   1113.889   2704.283   5.580615   45712.14   26.89241
  274.6870   295.4000   1113.834   2704.290   5.579728   45768.18   26.89260
  276.1790   295.3930   1113.329   2704.290   5.578271   45960.31   26.89260
  277.6880   295.3880   1112.581   2704.334   5.577828   45991.59   26.89305
  279.3430   295.3530   1112.737   2704.340   5.577448   46105.63   26.89292
  280.6850   295.3330   1112.707   2704.372   5.576371   46164.58   26.89197
  282.2750   295.3220   1112.491   2704.378   5.576055   46162.62   26.89279
  283.6860   295.2940   1112.367   2704.397   5.575358   46254.23   26.89381
  285.1850   295.0420   1112.026   2704.448   5.573838   46304.71   26.89286
  286.6860   295.1140   1111.245   2704.435   5.572064   46771.50   26.89324
  288.1850   295.0680   1110.403   2704.486   5.571431   46840.55   26.89235
  289.6870   295.0060   1111.023   2704.638   5.570291   46901.90   26.89349
  291.1860   295.0200   1111.491   2704.613   5.567377   46878.59   26.89330
  292.6860   295.0280   1111.500   2704.562   5.568200   46863.11   26.89298
  294.1850   294.9790   1111.431   2704.556   5.568011   46864.69   26.89235
  295.6880   294.9260   1111.002   2704.537   5.567504   46907.65   26.89311
  297.1850   294.8100   1110.454   2704.568   5.567061   47023.59   26.89349
  298.6800   294.8200   1110.146   2704.556   5.564781   47146.54   26.89381
  300.1860   294.6790   1109.872   2704.568   5.562564   47430.72   26.89292
  301.6850   294.6750   1109.865   2704.625   5.560663   47460.04   26.89235
  303.1880   294.6580   1109.490   2704.505   5.560981   47507.99   26.89273
  304.6860   294.6290   1107.575   2704.720   5.560917   47548.37   26.89273
  306.1840   294.5250   1109.363   2704.740   5.559270   47618.94   26.89222
  307.6850   294.4800   1109.183   2704.740   5.558763   47926.69   26.89298
  309.1860   294.5130   1108.963   2704.733   5.557433   47956.52   26.89273
  310.6780   294.5050   1107.784   2704.746   5.556736   47961.63   26.89203
  312.2010   294.3850   1108.275   2704.733   5.556294   48060.76   26.89355
  313.6870   294.3360   1107.140   2704.714   5.555534   48205.51   26.89197
  315.1840   294.3130   1107.708   2704.892   5.554520   48219.98   26.89279
  316.6780   294.1840   1107.016   2704.790   5.553253   48400.23   26.89279
  318.1870   294.1010   1107.211   2704.961   5.553443   48467.27   26.89260
  319.6860   294.0640   1103.016   2704.860   5.552683   49142.80   26.89248
  321.1840   293.9360   1105.890   2705.006   5.549326   49176.16   26.89349
  322.6780   293.8150   1104.233   2705.050   5.547046   49123.09   26.89362
  324.1840   293.9330   1106.266   2705.101   5.546413   49074.88   26.89305
  325.8410   293.9810   1106.405   2705.069   5.545780   49228.09   26.89324
  327.1840   293.9130   1106.354   2705.056   5.544956   49178.37   26.89311
  328.6790   293.9310   1106.480   2705.031   5.545336   49151.83   26.89273
  330.1850   293.9640   1106.454   2705.012   5.544196   49131.99   26.89241
  331.6780   293.9140   1106.339   2704.974   5.545020   49131.30   26.89260
  333.1840   293.7920   1105.811   2704.980   5.543436   49269.03   26.89330
  334.6850   293.5660   1105.318   2704.987   5.541282   49343.02   26.89292
  336.1830   293.6510   1105.183   2704.980   5.540839   49414.22   26.89178
  337.6790   293.6490   1105.270   2705.056   5.539953   49550.82   26.89330
  339.1830   293.5440   1104.452   2705.050   5.538495   49638.77   26.89324
  340.6840   293.5310   1104.778   2705.075   5.538876   49772.46   26.89260
  342.2050   293.3210   1103.291   2705.044   5.536912   49978.81   26.89362
  343.6830   293.4440   1104.087   2705.164   5.536912   50015.83   26.89273
  345.1770   293.4520   1103.767   2705.145   5.533555   50065.87   26.89305
  346.6850   293.3760   1103.870   2705.189   5.534125   50189.52   26.89381
  348.1850   293.4420   1103.240   2705.208   5.532922   50279.80   26.89330
  349.6830   293.4100   1103.127   2705.246   5.532985   50281.38   26.89229
  351.1830   293.3740   1103.296   2705.196   5.527665   50335.84   26.89235
  352.6830   293.3140   1103.148   2705.246   5.530451   50364.02   26.89254
  354.1810   293.2760   1102.981   2705.246   5.527411   50439.14   26.89355
  355.6830   293.2620   1102.770   2705.265   5.530642   50533.73   26.89343
  357.1850   293.2330   1101.684   2705.297   5.525891   50586.99   26.89374
  358.6830   293.1280   1102.275   2705.284   5.527855   50714.80   26.89324
  360.1830   293.0930   1101.793   2705.329   5.526398   50779.62   26.89267
  361.8310   293.1180   1101.674   2705.348   5.525701   51272.62   26.89317
  363.2050   293.0050   1100.997   2705.398   5.525448   51549.61   26.89273
  364.6760   293.0070   1098.303   2705.335   5.524308   51712.24   26.89305
  366.1830   292.9390   1094.791   2705.519   5.524561   51540.20   26.89336
  367.6780   292.7690   1100.663   2705.525   5.522471   51660.75   26.89260
  369.1830   292.8130   1100.844   2705.531   5.520254   51669.91   26.89336
  370.6830   292.6770   1100.215   2705.493   5.520064   52020.62   26.89273
  372.2640   292.7090   1100.145   2705.487   5.519748   51975.77   26.89393
  373.6830   292.7310   1099.883   2705.538   5.519177   51921.68   26.89235
  375.1810   292.6470   1100.171   2705.557   5.518227   51934.19   26.89311
  376.6840   292.5100   1098.343   2705.538   5.516454   51994.97   26.89267
  378.1810   292.4420   1099.253   2705.531   5.515504   52188.75   26.89330
  379.6830   292.4440   1098.935   2705.607   5.514554   52445.32   26.89241
  381.1830   292.4160   1096.713   2705.614   5.513920   52788.84   26.89298
  382.6760   292.4720   1098.034   2705.633   5.512337   52934.16   26.89279
  384.1760   292.2010   1098.038   2705.709   5.512147   52889.74   26.89279
  385.6770   292.1340   1097.942   2705.734   5.511514   53322.21   26.89229
  387.1820   292.2150   1096.431   2705.740   5.509360   53505.94   26.89279
  388.6820   292.1420   1095.205   2705.810   5.508854   53589.34   26.89260
  390.1810   292.1650   1094.177   2705.785   5.507206   53641.46   26.89286
  391.6820   292.0670   1096.390   2705.905   5.505243   53587.45   26.89298
  393.1820   292.0170   1095.310   2705.937   5.505116   53658.40   26.89368
  394.6820   291.9180   1095.697   2705.950   5.503786   53723.22   26.89267
  396.1820   291.7580   1095.569   2705.988   5.501253   53831.89   26.89254
  398.0410   291.8330   1094.847   2705.950   5.500873   53946.57   26.89267
  399.1730   291.7790   1094.474   2706.026   5.499923   54046.45   26.89349
  400.6830   291.7180   1094.447   2706.013   5.498213   54119.62   26.89336
  402.2070   291.6170   1094.207   2706.064   5.497199   54257.41   26.89305
  403.6800   291.5910   1093.794   2706.038   5.495553   54348.33   26.89279
  405.1830   291.4960   1094.293   2706.102   5.495869   54508.30   26.89311
  406.6820   291.4950   1093.467   2706.140   5.494032   54596.64   26.89305
  408.1820   291.3280   1093.145   2706.140   5.493336   54855.87   26.89349
  409.6820   291.2410   1093.121   2706.171   5.491245   55107.58   26.89260
  411.1800   291.1900   1092.290   2706.171   5.489156   55234.45   26.89279
  412.6750   291.0990   1092.461   2706.229   5.487255   55463.60   26.89292
  414.1730   291.1780   1092.203   2706.222   5.486306   55674.57   26.89248
  415.6830   291.0060   1091.175   2706.254   5.484342   55791.70   26.89279
  417.1810   290.7810   1090.907   2706.323   5.483202   56604.59   26.89349
  418.6740   290.8160   1090.584   2706.362   5.481492   56922.45   26.89241
  420.1720   290.7940   1088.610   2706.425   5.479464   56883.47   26.89298
  421.6830   290.7030   1089.061   2706.482   5.475538   56963.58   26.89286
  423.1830   290.5600   1086.237   2706.507   5.474207   57150.79   26.89279
  424.6810   290.3920   1088.036   2706.571   5.473068   57348.22   26.89286
  426.1810   290.4000   1086.890   2706.640   5.471547   57575.86   26.89254
  427.6750   290.3340   1087.474   2706.710   5.469711   57859.74   26.89305
  429.1730   290.2890   1087.279   2706.742   5.468950   58258.72   26.89286
  430.6740   290.1900   1086.711   2706.786   5.465594   58364.80   26.89343
  432.1820   290.0870   1085.407   2706.824   5.464137   58706.48   26.89279
  433.6790   289.9970   1086.075   2706.913   5.462933   58943.86   26.89254
  435.1810   289.7710   1085.505   2706.906   5.459577   59098.27   26.89343
  436.6810   289.6910   1085.225   2707.008   5.458690   59389.47   26.89260
  438.1790   289.4140   1083.107   2707.040   5.453370   59839.01   26.89286
  439.6790   289.2810   1080.800   2707.103   5.449190   60422.10   26.89254
  441.1810   289.2490   1080.062   2707.210   5.445896   60695.42   26.89229
  442.6790   288.2720   1080.123   2707.375   5.442159   60944.67   26.89273
  444.1800   288.8580   1078.846   2707.458   5.440259   61226.84   26.89254
  445.6810   288.8060   1079.075   2707.515   5.438042   61500.72   26.89203
  447.1790   288.6510   1078.751   2707.553   5.435066   61884.99   26.89311
  448.6790   288.3010   1078.892   2707.648   5.432279   62219.21   26.89343
  450.1790   288.3930   1078.362   2707.654   5.430252   62575.55   26.89241
  451.6820   288.3130   1078.430   2707.705   5.425628   62868.02   26.89235
  453.1790   288.3890   1077.411   2707.743   5.425122   63098.19   26.89305
  454.6810   288.1430   1075.351   2707.793   5.425185   63378.96   26.89279
  456.1790   288.1770   1073.734   2707.800   5.421891   63721.78   26.89260
  457.6730   288.0640   1074.897   2707.939   5.419928   63993.78   26.89260
  459.1790   287.9860   1074.361   2708.021   5.419104   64218.77   26.89267
  460.6740   287.8370   1071.889   2708.034   5.417901   64432.95   26.89292
  462.1810   287.7930   1074.527   2708.180   5.414670   64669.50   26.89260
  463.6790   287.7410   1073.619   2708.167   5.412897   64903.39   26.89305
  465.1790   287.3710   1071.662   2708.269   5.410934   65153.34   26.89222
  466.6800   287.4300   1071.807   2708.345   5.408527   65696.69   26.89298
  468.1780   287.3230   1071.106   2708.617   5.406057   66128.47   26.89216
  469.6790   287.2420   1070.787   2708.592   5.403523   66485.45   26.89248
  471.1780   287.0230   1068.839   2708.529   5.400673   66956.90   26.89216
  472.6810   286.9320   1067.747   2708.699   5.397696   67200.52   26.89216
  474.1710   286.8150   1069.321   2708.833   5.394339   67538.67   26.89260
  475.7070   286.8100   1069.201   2708.871   5.393136   67815.65   26.89222
  477.1810   286.7180   1068.318   2708.820   5.390856   68094.91   26.89222
  478.6790   286.5460   1067.672   2708.858   5.388005   68388.07   26.89254
  480.1780   286.5770   1066.682   2708.909   5.385789   68561.37   26.89254
  481.6780   286.3640   1065.344   2709.010   5.384649   68929.66   26.89267
  483.1780   286.2780   1064.219   2709.054   5.382305   69202.28   26.89178
  484.6770   286.1410   1064.822   2709.156   5.380152   69537.46   26.89260
  486.1700   285.8780   1064.476   2709.162   5.379771   70137.99   26.89241
  487.6720   285.7360   1060.957   2709.308   5.374514   70542.35   26.89222
  489.1790   285.8220   1062.641   2709.358   5.371221   70888.96   26.89241
  490.6800   285.6990   1062.501   2709.422   5.370017   71181.42   26.89178
  492.1780   285.5510   1060.644   2709.472   5.368117   71644.04   26.89229
  493.6780   285.5270   1061.458   2709.587   5.366027   72066.78   26.89172
  495.2230   285.3070   1060.976   2709.612   5.362987   72727.34   26.89229
  496.6810   285.3050   1060.831   2709.713   5.361467   72766.76   26.89172
  498.2410   285.1450   1059.488   2709.745   5.358300   73173.39   26.89229
  499.7120   285.1080   1058.657   2709.834   5.357034   73600.18   26.89165
  501.2220   284.9890   1058.295   2709.853   5.354183   73869.08   26.89172
  502.6810   284.9320   1057.584   2710.011   5.351713   74397.84   26.89140
  504.1850   284.3610   1057.112   2710.049   5.349496   75668.09   26.89203
  505.6780   284.4810   1055.717   2710.170   5.345632   76409.45   26.89184
  507.1770   284.4730   1054.919   2710.290   5.342529   76321.06   26.89216
  508.6790   284.4440   1052.016   2710.423   5.339995   76597.10   26.89210
  510.1770   284.3030   1053.816   2710.524   5.338539   76593.19   26.89216
  511.6730   284.1810   1054.268   2710.537   5.335118   76753.16   26.89254
  513.1770   284.1120   1052.300   2710.531   5.334675   76969.30   26.89134
  514.6790   284.0200   1051.745   2710.664   5.333218   77526.87   26.89191
  516.1770   283.9320   1050.007   2710.778   5.330115   77654.24   26.89115
  517.6770   283.8660   1051.683   2710.847   5.328848   78034.47   26.89165
  519.1770   283.8200   1051.230   2710.860   5.326568   78250.80   26.89121
  520.6770   283.7450   1051.243   2710.905   5.324794   78435.16   26.89222
  522.5960   283.6690   1050.716   2710.949   5.322388   78771.03   26.89115
  523.6770   283.5420   1050.055   2710.968   5.322261   79055.41   26.89102
  525.1770   283.4010   1049.443   2711.006   5.320171   79401.01   26.89127
  526.6770   283.3050   1049.128   2711.120   5.317194   80109.33   26.89184
  528.1770   283.0700   1048.262   2711.196   5.315294   81106.89   26.89184
  529.6790   283.0160   1046.818   2711.266   5.312127   81364.41   26.89191
  531.1700   282.8170   1046.807   2711.411   5.309086   81557.05   26.89089
  532.6770   282.8790   1046.359   2711.399   5.305920   81752.53   26.89146
  534.1770   282.4350   1045.206   2711.633   5.305350   82844.17   26.89153
  535.6780   282.4440   1044.396   2711.722   5.300726   83296.48   26.89096
  537.1680   282.5360   1044.151   2711.728   5.298003   83474.47   26.89146
  538.6710   282.4030   1044.403   2711.830   5.295659   83550.41   26.89134
  540.1790   282.4610   1043.304   2711.848   5.295596   83704.70   26.89121
  541.6880   282.3220   1042.583   2711.912   5.292619   83838.83   26.89070
  543.3360   282.2810   1042.874   2711.963   5.291669   84050.23   26.89032
  544.6770   282.2580   1042.699   2712.032   5.290276   84270.86   26.89083
  546.1750   282.1530   1042.217   2712.096   5.288945   84520.30   26.89172
  547.6700   282.0820   1040.299   2712.026   5.288818   84836.64   26.89153
  549.1770   281.9930   1040.647   2712.343   5.287552   85266.09   26.89045
  550.6700   281.9140   1039.941   2712.368   5.286476   85808.43   26.89121
  552.1780   281.6120   1039.842   2712.431   5.283562   86157.32   26.89134
  553.6780   280.6160   1038.685   2712.501   5.280458   88314.12   26.89051
  555.1760   281.4360   1036.312   2712.596   5.274631   88250.69   26.89058
  556.6700   281.3540   1035.607   2712.875   5.273745   88789.05   26.89051
  558.1810   281.2550   1036.134   2712.983   5.272288   88779.64   26.89032
  559.6760   281.1180   1035.632   2712.495   5.270008   88984.53   26.89089
  561.1760   281.0880   1032.411   2714.161   5.266461   89037.54   26.89039
  562.6760   281.0500   1033.662   2714.098   5.265257   89145.90   26.89070
  564.1760   280.8610   1035.150   2713.990   5.264180   89604.15   26.89115
  565.6750   280.7000   1034.462   2713.832   5.261203   90391.83   26.89089
  567.1680   280.6850   1032.850   2713.686   5.257783   90666.28   26.89032
  568.6680   280.5920   1032.899   2713.623   5.256580   90999.81   26.89064
  570.1760   280.5290   1032.185   2713.616   5.255820   91487.12   26.89096
  571.6700   280.4190   1031.535   2713.604   5.250689   91745.28   26.89007
  573.2190   280.3330   1030.924   2713.730   5.249359   92220.27   26.89083
  574.6790   280.2460   1031.028   2713.743   5.248726   92504.84   26.89051
  576.1680   280.2570   1031.249   2713.711   5.248219   92889.80   26.88975
  577.6740   280.1190   1029.967   2713.756   5.246573   93322.09   26.89045
  579.1770   279.9730   1030.202   2713.737   5.244734   93745.59   26.89058
  580.6750   279.8570   1027.475   2713.800   5.242328   94131.12   26.89102
  582.1740   279.6820   1028.302   2713.939   5.240428   94473.19   26.89026
  583.6750   279.7640   1028.993   2713.978   5.238085   94788.14   26.89051
  585.1740   279.6250   1023.438   2714.022   5.236121   101577.3   26.88994
  586.6690   279.2810   1024.467   2714.104   5.234727   99886.27   26.89020
  588.1750   279.0130   1024.079   2714.269   5.230484   100090.1   26.88994
  589.6740   279.1660   1024.018   2714.427   5.226493   99549.83   26.88975
  591.1690   279.0520   1024.519   2714.567   5.224720   99068.65   26.89020
  592.6680   279.0300   1024.725   2714.700   5.222820   98968.88   26.88988
  594.1750   278.9030   1024.586   2714.706   5.221236   98921.62   26.88994
  595.6750   278.9070   1023.700   2714.706   5.219209   99099.23   26.88956
  597.1670   278.8640   1023.682   2714.738   5.218893   99378.55   26.88963
  598.6750   278.8170   1021.662   2714.770   5.217120   99721.24   26.89026
  600.3270   278.5880   1022.229   2714.884   5.215853   100234.1   26.88982
  601.6730   278.5410   1021.877   2714.922   5.214143   100569.3   26.88982
  603.2220   278.4310   1021.320   2715.048   5.212876   100822.9   26.89026
  604.6780   278.4210   1020.808   2715.118   5.209836   101299.6   26.89026
  606.1670   278.2970   1019.499   2715.181   5.208316   101923.3   26.88918
  607.6680   278.1310   1018.606   2715.270   5.205085   102888.7   26.88849
  609.1730   277.8900   1019.242   2715.340   5.200969   103562.3   26.88874
  610.6750   277.7110   1017.873   2715.384   5.196915   103959.5   26.88918
  612.1740   277.9060   1017.517   2715.486   5.196281   104455.9   26.88880
  613.6730   277.8960   1017.673   2715.555   5.194888   105603.2   26.88906
  615.1730   277.7340   1017.359   2715.581   5.191848   105539.2   26.88868
  616.6730   277.4420   1016.984   2715.650   5.191278   105658.3   26.88849
  618.1730   277.2400   1016.067   2715.726   5.187541   106162.2   26.88963
  619.6670   277.3400   1014.876   2715.790   5.185767   106309.0   26.88912
  621.1670   277.2130   1014.395   2715.885   5.183741   106570.2   26.88931
  622.6740   277.0880   1013.197   2715.980   5.180257   107057.1   26.88899
  624.1740   276.8930   1013.095   2716.075   5.178611   107697.9   26.88887
  625.6730   276.9160   1012.539   2716.189   5.175760   108333.9   26.88887
  627.1740   276.8450   1012.023   2716.315   5.175000   108884.6   26.88906
  628.6740   276.7670   1011.249   2716.303   5.173860   109309.3   26.88944
  630.1730   276.6910   1010.273   2716.569   5.171834   109764.3   26.88868
  631.6740   276.0630   1009.948   2716.689   5.169679   110289.5   26.88899
  633.2250   276.3600   1006.952   2716.797   5.167083   111295.3   26.88868
  634.6820   276.0910   1007.655   2716.898   5.164803   112240.8   26.88893
  636.1730   276.1610   1008.013   2716.981   5.162016   112673.7   26.88855
  637.6740   276.2100   1007.724   2717.095   5.159736   113091.9   26.88798
  639.1710   276.0300   1007.366   2717.184   5.158279   113357.9   26.88906
  640.6720   276.0740   1007.057   2717.222   5.157139   113718.9   26.88906
  642.1720   275.9500   1006.377   2717.247   5.155492   114015.3   26.88836
  643.6660   275.8180   1006.038   2717.317   5.153592   114394.0   26.88823
  645.1730   275.8730   1005.715   2717.380   5.150236   114886.7   26.88798
  646.6660   275.7730   1005.396   2717.450   5.150426   115411.5   26.88811
  648.1730   275.7580   1005.509   2717.507   5.149665   115572.7   26.88811
  649.6730   275.6500   1004.239   2717.564   5.147828   115798.9   26.88716
  651.1720   275.3990   1004.368   2717.665   5.146815   116238.5   26.88798
  652.6740   275.5150   1003.905   2717.722   5.145105   116653.4   26.88747
  654.1720   275.4120   1003.190   2717.741   5.143142   117011.4   26.88811
  655.6700   275.4150   1003.224   2717.881   5.141368   117501.8   26.88741
  657.1730   275.3320   1000.786   2717.963   5.139721   117931.7   26.88760
  658.6640   275.2390   1001.713   2717.957   5.139975   118307.5   26.88804
  660.1730   275.1310   1001.481   2718.064   5.138834   118758.1   26.88747
  661.6730   275.1010   1001.178   2718.109   5.136111   119403.4   26.88830
  663.1650   274.9190   1000.059   2718.204   5.134527   131401.1   26.88722
  664.6810   274.8080   999.6024   2718.267   5.131044   130366.9   26.88747
  666.1730   274.7550   998.9451   2718.356   5.130094   127580.1   26.88747
  667.6710   274.6180   998.7333   2718.445   5.128067   126082.1   26.88811
  669.1730   274.6100   998.7150   2718.527   5.123507   125274.8   26.88811
  670.6730   274.4950   996.7949   2718.609   5.123380   124804.6   26.88716
  672.1710   274.3590   997.3128   2718.749   5.121543   124980.8   26.88760
  673.6730   274.2740   996.8533   2718.882   5.120593   125229.2   26.88703
  675.1640   273.9800   996.3652   2718.945   5.118883   125675.3   26.88804
  676.6830   273.9960   995.2932   2719.021   5.116413   127556.0   26.88792
  678.1720   273.9500   994.2422   2719.160   5.111473   127492.7   26.88703
  679.6740   273.7450   994.4489   2719.256   5.109952   127571.2   26.88741
  681.1710   273.6560   994.1307   2719.294   5.107863   128078.2   26.88652
  682.6710   273.5560   993.4486   2719.408   5.103872   128832.2   26.88671
  684.1700   273.5260   992.6188   2719.471   5.099945   129330.3   26.88741
  685.6720   273.3610   991.2737   2719.604   5.099629   130911.9   26.88621
  687.1630   273.2900   990.0865   2719.737   5.097349   131230.0   26.88640
  688.9460   273.1170   983.2886   2719.775   5.095321   131505.0   26.88633
  690.1710   273.0940   986.6102   2720.168   5.093548   131764.8   26.88671
  691.6710   273.0610   988.9030   2720.269   5.092218   132232.4   26.88627
  693.1700   273.0300   988.4599   2720.339   5.089684   132537.9   26.88627
  694.6710   272.7310   988.8054   2720.352   5.088481   133395.8   26.88627
  696.1690   272.8260   988.2007   2720.421   5.087088   133843.2   26.88614
  697.6690   272.8420   987.7284   2720.510   5.085441   134072.6   26.88697
  699.1710   272.6870   987.8862   2720.529   5.083414   134533.9   26.88614
  700.6700   272.7340   987.7100   2720.624   5.083097   134806.4   26.88728
  702.1720   272.6920   987.4977   2720.668   5.081767   135147.3   26.88602
  703.6710   272.6060   987.2435   2720.662   5.081134   135571.8   26.88564
  705.1700   272.5830   986.6052   2720.707   5.080880   136438.7   26.88671
  706.6710   272.4490   986.1583   2720.757   5.079487   136778.3   26.88583
  708.1690   272.3730   985.7190   2720.821   5.077904   137061.0   26.88640
  709.6700   272.3530   985.6309   2720.878   5.076257   137543.8   26.88507
  711.1620   272.3120   984.5913   2720.909   5.075116   137829.0   26.88526
  712.6690   272.1960   985.1846   2720.973   5.073850   138509.5   26.88583
  714.1640   272.1710   984.4157   2721.068   5.072584   138888.4   26.88570
  715.6720   272.1150   983.9498   2721.188   5.070874   139196.4   26.88570
  717.1700   271.9990   983.8750   2721.220   5.069163   139524.6   26.88583
  718.6700   271.9380   983.2684   2721.264   5.066376   140291.4   26.88678
  720.1700   271.8960   982.5425   2721.385   5.065743   140817.3   26.88583
  721.6640   271.8190   982.8367   2721.429   5.063779   141101.2   26.88602
  723.1620   271.7410   982.1096   2721.441   5.062512   141548.5   26.88532
  724.8020   271.6480   980.5338   2721.537   5.060359   142829.8   26.88551
  726.1820   271.5850   980.6821   2721.727   5.059472   143421.7   26.88589
  727.6720   271.5190   980.1807   2721.739   5.057509   143991.9   26.88640
  729.1700   271.4930   979.7953   2721.854   5.055102   144297.4   26.88469
  730.6630   271.3030   979.5760   2721.942   5.054089   145249.1   26.88532
  732.2420   271.2370   979.1931   2722.050   5.052316   145626.8   26.88551
  733.7440   270.1010   977.8182   2721.549   5.050605   146194.5   26.88500
  735.1630   270.2990   977.0233   2723.792   5.047818   146733.2   26.88538
  736.6720   270.7660   977.5970   2723.817   5.046425   147511.3   26.88494
  738.1700   270.7110   976.3083   2723.513   5.044018   148335.0   26.88469
  739.6780   270.5630   974.8991   2723.387   5.042054   150497.1   26.88494
  741.1710   270.4570   974.2861   2723.330   5.037684   151026.8   26.88513
  742.6700   270.2610   974.2221   2723.285   5.033314   151744.1   26.88494
  744.1770   270.2090   973.7708   2723.266   5.031668   152282.8   26.88481
  745.6760   270.2920   972.9810   2723.285   5.030463   152926.5   26.88475
  747.1760   270.0700   972.4067   2723.273   5.029387   153348.6   26.88431
  748.6690   270.1180   972.5341   2723.330   5.027550   154022.8   26.88418
  750.1690   269.9900   971.9800   2723.374   5.024510   154776.8   26.88399
  751.6760   269.8300   971.3208   2723.412   5.023750   155626.0   26.88450
  753.1690   269.7830   970.9094   2723.513   5.021027   156269.8   26.88361
  754.6720   269.6640   970.3395   2723.608   5.019633   156861.6   26.88450
  756.1670   269.5850   970.1766   2723.691   5.016530   157589.1   26.88469
  757.6700   269.4260   969.5067   2723.748   5.016150   158461.0   26.88507
  759.1690   269.2870   968.6737   2723.913   5.012539   159786.6   26.88431
  760.8960   269.0170   966.4297   2724.065   5.010386   161470.9   26.88412
  762.1770   269.0400   966.3182   2724.198   5.006522   162118.5   26.88399
  763.6770   268.9430   965.3965   2724.350   5.004559   162920.7   26.88342
  765.1690   268.8470   965.3439   2724.514   5.002849   163548.0   26.88367
  766.6770   268.7970   964.6022   2724.578   4.998922   164626.5   26.88317
  768.1750   268.6950   963.7706   2724.781   4.997275   165530.1   26.88336
  769.6750   268.5860   963.5886   2724.914   4.995502   166237.3   26.88304
  771.1750   268.4590   963.1316   2725.015   4.993728   166981.2   26.88279
  772.6750   268.3940   962.4768   2725.091   4.991575   167649.0   26.88272
  774.1770   268.3270   962.2606   2725.199   4.989864   168480.4   26.88234
  775.6770   268.2510   961.8404   2725.351   4.987141   169254.8   26.88291
  777.1750   268.0750   961.0201   2725.402   4.984924   170158.4   26.88317
  778.6770   267.9760   960.5986   2725.535   4.982264   171021.4   26.88279
  780.1770   267.8340   960.4147   2725.642   4.979351   171969.4   26.88260
  782.1670   267.7390   954.6718   2725.839   4.975740   173060.5   26.88348
  783.6690   267.5910   957.3759   2725.883   4.975486   174402.6   26.88234
  785.1750   267.4660   957.7632   2726.099   4.971876   175692.8   26.88203
  786.8930   267.3180   956.7984   2726.213   4.968330   176998.1   26.88165
  788.1850   266.3290   956.3021   2726.308   4.966873   177894.1   26.88196
  789.6700   267.1620   954.7827   2726.479   4.964023   178780.0   26.88253
  791.1690   267.0930   954.8702   2726.587   4.962946   180615.0   26.88152
  792.6650   267.0830   954.9259   2726.707   4.961172   180978.8   26.88152
  794.1740   267.0830   954.3110   2726.771   4.958956   181157.5   26.88127
  795.6730   267.0030   954.3117   2726.865   4.958893   181413.5   26.88203
  797.4910   266.9030   954.1431   2726.948   4.956993   182063.6   26.88171
  798.6660   266.8300   953.4578   2726.986   4.955662   182576.9   26.88133
  800.1660   266.7510   953.1117   2727.081   4.955092   183262.5   26.88247
  801.6660   266.6400   952.7244   2727.170   4.953065   183987.4   26.88165
  803.1670   266.5870   952.3282   2727.214   4.951419   184674.3   26.88184
  804.6760   266.4580   951.6760   2727.347   4.949011   185487.9   26.88165
  806.1740   266.3740   950.9096   2727.436   4.947175   187335.7   26.88101
  807.9650   266.1940   950.1204   2727.588   4.945021   188121.4   26.88114
  809.1740   266.2780   949.8947   2727.702   4.942362   188644.8   26.88190
  810.6730   266.1320   949.3179   2727.810   4.940968   189317.8   26.88044
  812.1660   266.0510   948.6846   2727.924   4.938941   190122.5   26.88139
  813.7500   265.9080   948.3569   2728.063   4.937294   191317.6   26.88108
  815.1660   265.7210   947.7744   2728.133   4.935457   192938.5   26.88101
  816.6610   265.5910   946.4198   2728.298   4.931341   194141.2   26.88095
  818.2430   265.3660   945.1418   2728.431   4.928301   195226.0   26.88108
  819.6630   265.2070   944.1371   2728.564   4.925260   196698.6   26.88063
  821.1660   265.0870   943.4880   2728.830   4.922220   197988.8   26.87994
  822.6690   265.1180   943.0988   2728.969   4.920890   199303.0   26.88070
  824.1620   264.9710   942.1479   2729.109   4.917216   200315.6   26.87899
  825.6680   264.8430   942.3045   2729.254   4.913986   201470.1   26.88025
  827.1680   264.6570   939.4844   2729.394   4.911706   202866.7   26.87943
  828.6640   264.6130   938.4283   2729.540   4.909806   204084.6   26.87937
  830.1650   264.4190   938.0055   2729.717   4.907082   205192.2   26.87937
  831.6740   264.3330   939.2606   2729.894   4.905499   206673.8   26.87911
  833.1740   264.2880   938.3992   2730.053   4.903472   207933.5   26.87962
  834.6670   264.2870   938.1513   2730.205   4.901255   208847.2   26.87949
  836.1670   264.1650   937.9586   2730.312   4.899609   209483.4   26.87835
  837.6740   264.1570   937.9523   2730.382   4.898088   210276.8   26.87867
  839.1730   264.0390   937.4153   2730.420   4.896569   211147.4   26.87854
  840.6730   264.0040   937.1745   2730.541   4.893402   212397.0   26.87918
  842.1730   263.9390   936.4689   2730.648   4.890994   213190.3   26.87886
  843.7530   263.7740   935.8668   2730.788   4.889157   214036.9   26.87835
  845.1590   263.6900   935.1999   2730.883   4.886371   214959.5   26.87848
  846.6660   263.5120   934.8690   2730.997   4.882064   216082.3   26.87823
  848.1610   263.4150   934.6180   2731.124   4.877250   217591.7   26.87886
  849.6640   263.3650   933.2837   2731.244   4.877693   218969.3   26.87886
  851.1720   263.2490   932.9667   2731.364   4.876617   220202.5   26.87810
  852.6650   263.1840   931.9062   2731.535   4.873894   221715.6   26.87810
  854.1720   263.0760   931.5912   2731.668   4.872563   222806.8   26.87753
  855.6670   262.9700   931.3699   2731.814   4.871107   223614.1   26.87810
  857.1650   262.9060   930.7316   2731.896   4.869650   224608.9   26.87797
  858.6650   262.7430   930.2493   2732.055   4.867180   225691.2   26.87861
  860.1660   262.6800   929.8093   2732.131   4.866420   226983.9   26.87810
  861.6680   262.6520   929.2965   2732.264   4.864012   227905.2   26.87778
  863.1650   262.5340   929.0601   2732.365   4.863633   228853.2   26.87785
  864.6730   262.5170   928.4781   2732.492   4.861099   229897.5   26.87728
  866.2370   262.4660   927.9692   2732.594   4.860086   230823.9   26.87772
  867.6640   262.3940   927.5400   2732.669   4.858185   231676.8   26.87652
  869.1640   262.2090   926.6805   2732.777   4.855588   233025.2   26.87766
  870.6680   261.9630   926.0307   2732.936   4.853182   234378.7   26.87728
  872.2370   261.9120   925.0203   2733.132   4.849382   236125.1   26.87721
  873.7530   261.8140   924.5905   2733.271   4.847545   237653.5   26.87677
  875.2370   261.7120   923.4977   2733.417   4.846278   238837.2   26.87696
  876.6640   261.6070   923.5605   2733.544   4.843112   240222.3   26.87620
  878.1640   261.5400   922.7928   2733.671   4.840831   241388.3   26.87588
  880.2880   261.3770   922.1405   2733.873   4.838361   243134.7   26.87683
  881.6660   261.2680   921.4236   2733.969   4.836778   244815.1   26.87563
  883.1660   261.1710   920.6541   2734.095   4.834117   245810.0   26.87626
  884.6640   261.0100   920.3764   2734.285   4.832534   246968.3   26.87740
  886.1640   252.7910   919.7819   2735.103   4.831837   248999.8   26.87601
  887.6660   258.1980   919.2994   2735.229   4.828607   250102.4   26.87576
  889.1640   260.5480   918.6776   2735.210   4.825884   251217.6   26.87594
  890.6720   260.6540   918.0463   2735.179   4.824236   252407.7   26.87614
  892.2360   260.5610   917.7629   2735.223   4.821577   253574.9   26.87576
  893.6660   260.4590   917.1918   2735.255   4.819677   254941.0   26.87487
  895.2360   260.3670   916.6935   2735.381   4.816953   256434.0   26.87531
  896.6640   260.2330   915.9988   2735.495   4.814166   258028.2   26.87512
  898.1620   260.1680   914.7589   2735.584   4.811949   259717.6   26.87538
  899.7360   260.0920   914.7741   2735.723   4.809606   261195.3   26.87506
  901.2930   259.9640   914.2290   2735.857   4.808149   263060.8   26.87474
  902.6750   259.8240   913.1552   2735.952   4.804855   264585.4   26.87392
  904.1630   259.7600   912.7850   2736.085   4.803209   266003.5   26.87398
  905.6640   259.6450   912.3330   2736.224   4.800422   267725.8   26.87398
  907.1630   259.5320   911.3847   2736.389   4.798522   269410.1   26.87443
  908.6640   259.3960   910.8073   2736.573   4.795988   271516.3   26.87417
  910.1650   259.3050   910.4111   2736.750   4.793835   272662.1   26.87404
  911.7880   259.2150   910.0161   2736.908   4.787881   274132.1   26.87354
  913.1670   259.1130   909.3138   2737.010   4.788134   275427.3   26.87322
  914.6560   259.0640   908.6780   2737.156   4.785854   276522.3   26.87405
  916.1630   258.9630   908.1500   2737.314   4.783068   277793.4   26.87278
  917.6650   258.8960   907.7285   2737.396   4.781800   278887.1   26.87360
  919.1550   258.7970   907.3380   2737.510   4.779647   280230.5   26.87411
  920.6630   258.7040   906.9291   2737.650   4.778633   281803.2   26.87366
  922.2850   258.5650   906.2984   2737.802   4.777240   283648.5   26.87322
  923.6630   258.5960   905.7386   2737.909   4.774897   284899.3   26.87348
  925.1610   258.4290   905.0858   2738.062   4.772046   286397.3   26.87303
  926.7470   258.3450   904.2344   2738.207   4.771223   287797.7   26.87404
  928.1650   258.2740   904.0969   2738.340   4.769767   289084.0   26.87278
  929.6590   258.1290   903.3381   2738.486   4.767549   291063.6   26.87297
  931.1650   258.0510   902.6199   2738.613   4.765460   292504.5   26.87196
  932.6670   257.9680   902.4431   2738.759   4.764319   293775.7   26.87316
  934.2700   257.8770   902.0380   2738.854   4.762419   295263.5   26.87303
  935.7530   257.9150   901.6558   2738.974   4.760709   296211.5   26.87132
  937.2380   257.8260   901.5417   2739.094   4.759569   297025.1   26.87284
  938.8110   257.7820   901.1683   2739.183   4.757479   297859.0   26.87183
  940.1830   257.6870   900.2270   2739.278   4.756022   299230.2   26.87234
  941.6770   257.6120   900.2701   2739.361   4.754502   300344.2   26.87253
  943.1910   257.5220   899.7712   2739.493   4.752855   301597.6   26.87208
  944.6540   257.3500   899.1608   2739.576   4.751336   302965.0   26.87119
  946.1630   257.3140   898.9390   2739.753   4.750765   304331.2   26.87164
  947.6690   257.2370   898.2994   2739.899   4.747598   305920.4   26.87107
  949.2330   257.1180   897.5900   2740.026   4.746268   307394.3   26.87158
  950.6620   257.0200   897.3897   2740.140   4.743545   309239.5   26.87164
  952.1620   256.9140   896.5194   2740.292   4.740758   310786.9   26.87183
  953.6620   256.8600   896.4744   2740.412   4.738224   312348.3   26.87031
  955.1620   256.7490   895.0754   2740.571   4.737021   314558.5   26.87132
  956.7330   256.6970   894.9156   2740.748   4.733727   315985.5   26.87044
  958.4060   256.6260   894.2856   2740.843   4.733221   317418.8   26.87063
  959.6620   256.5260   893.8102   2740.995   4.730560   318665.9   26.87012
  961.1610   256.4480   893.8691   2741.115   4.728470   320106.8   26.87094
  962.6550   256.2740   893.4045   2741.236   4.727203   322056.0   26.87031
  964.2320   256.1740   892.8840   2741.363   4.724353   323863.2   26.86993
  965.6610   256.0840   891.9681   2741.502   4.722073   325399.2   26.86999
  967.1600   256.0130   891.5466   2741.546   4.721249   326968.1   26.86955
  968.7340   255.9510   891.2239   2743.257   4.719603   328030.2   26.86999
  970.1600   255.9440   890.4733   2743.251   4.716816   329084.6   26.86987
  971.7330   256.0080   890.6343   2742.966   4.716816   330016.1   26.86987
  973.1600   255.9610   890.7022   2742.801   4.716310   330784.1   26.86993
  974.6620   255.8800   890.4746   2742.630   4.714853   331713.0   26.86961
  976.1600   255.7810   890.0125   2742.554   4.714093   332677.4   26.86885
  977.6600   255.7050   889.2391   2742.529   4.712446   333761.0   26.86961
  979.1610   255.6310   889.2797   2742.541   4.710862   335242.5   26.86961
  980.6620   255.5140   888.8367   2742.617   4.709533   336552.9   26.86860
  982.1620   255.3800   887.8364   2742.687   4.707886   338128.2   26.86949
  984.0680   255.3400   887.4510   2742.795   4.705859   340177.4   26.86993
  985.1600   255.2660   887.2449   2742.890   4.704085   341309.2   26.86917
  986.7320   255.1640   886.5864   2743.016   4.702629   343072.0   26.86917
  988.1600   255.1110   885.9734   2743.124   4.701045   344732.2   26.86860
  989.6610   255.0750   885.5905   2743.238   4.698955   346234.0   26.86847
  991.1610   254.8770   885.2723   2743.358   4.697815   347642.0   26.86898
  992.6620   254.8540   885.2026   2743.441   4.695408   349101.9   26.86809
  994.1600   254.7690   884.5389   2743.568   4.694015   350265.3   26.86835
  995.6610   254.7420   884.1617   2743.688   4.691291   351767.1   26.86854
  997.1600   254.7190   883.8188   2743.802   4.690404   353331.0   26.86790
  998.6590   254.5780   883.2179   2743.941   4.688758   355209.2   26.86860
  1000.159   254.3760   882.4927   2744.087   4.687047   357803.4   26.86815
  1001.660   254.2860   881.7092   2744.233   4.684704   359949.0   26.86708
  1003.159   254.1800   880.8332   2744.360   4.681030   362303.7   26.86746
  1004.995   254.0550   880.3013   2744.556   4.678117   364825.6   26.86815
  1006.159   253.9800   879.8735   2744.733   4.676913   366274.2   26.86689
  1007.659   253.9620   879.6814   2744.866   4.675520   368526.2   26.86727
  1009.160   253.8690   878.9670   2745.050   4.672924   369974.8   26.86683
  1010.660   253.8170   878.7806   2745.209   4.670833   371537.4   26.86702
  1012.161   253.7710   878.2862   2745.297   4.670136   372998.6   26.86714
  1013.654   253.5900   877.5097   2745.443   4.667603   374822.3   26.86683
  1015.154   253.4540   877.0013   2745.595   4.665956   376985.6   26.86657
  1016.660   253.4400   876.4448   2745.716   4.663992   378587.5   26.86702
  1018.160   253.3120   876.0955   2745.868   4.661523   380676.1   26.86606
  1019.659   253.1930   874.9393   2746.077   4.658926   383222.1   26.86556
  1021.160   253.0830   874.3694   2746.260   4.656456   385746.6   26.86588
  1022.660   253.0070   874.2572   2746.394   4.654555   388259.8   26.86575
  1024.163   252.8780   873.3755   2746.583   4.652719   390197.5   26.86530
  1025.661   252.7820   872.9007   2746.723   4.650502   392353.2   26.86455
  1027.160   252.7600   872.8893   2746.844   4.649235   394105.9   26.86594
  1028.661   252.7060   872.4772   2747.002   4.646511   395861.1   26.86511
  1030.159   252.6360   872.0671   2747.128   4.645561   397520.1   26.86518
  1031.660   252.5440   871.5251   2747.230   4.643725   398944.6   26.86511
  1033.158   252.4960   871.1233   2747.319   4.642395   400478.0   26.86467
  1034.659   252.4350   870.7354   2747.433   4.640241   401848.0   26.86499
  1036.159   252.3100   870.7385   2747.559   4.639608   403447.3   26.86448
  1037.660   252.2520   870.1832   2747.674   4.637011   404931.4   26.86473
  1039.158   252.2110   870.0203   2747.788   4.636314   406570.0   26.86461
  1040.659   252.1960   869.4777   2747.902   4.635998   407998.3   26.86461
  1042.158   252.1130   869.2818   2748.003   4.633971   409275.8   26.86404
  1043.658   252.1150   869.1525   2748.047   4.632324   410045.0   26.86436
  1045.158   252.0950   868.8419   2748.098   4.632134   411266.7   26.86473
  1046.659   251.9470   868.3398   2748.199   4.630297   412342.7   26.86448
  1048.159   251.9460   868.1535   2748.333   4.629537   413944.6   26.86378
  1049.659   251.8740   867.9069   2748.421   4.627637   415532.5   26.86404
  1051.160   251.8040   867.3351   2748.529   4.626877   417472.8   26.86410
  1052.650   251.7090   866.8433   2748.630   4.624913   418769.3   26.86404
  1054.166   251.6900   866.4274   2748.776   4.625040   420120.3   26.86328
  1055.652   251.5530   866.2867   2748.884   4.622950   421989.6   26.86442
  1057.150   251.5080   865.8379   2749.004   4.621176   423509.1   26.86391
  1058.652   251.4550   864.2430   2749.074   4.620226   424989.3   26.86423
  1060.157   251.4060   864.6342   2749.175   4.617693   426391.0   26.86309
  1061.961   251.2200   864.1169   2749.277   4.616743   428335.1   26.86347
  1063.160   251.1930   864.1435   2749.372   4.615096   430000.3   26.86264
  1064.657   251.1280   863.9882   2749.530   4.613576   431835.4   26.86296
  1066.149   251.0650   863.3683   2749.650   4.611866   433616.0   26.86347
  1067.651   251.0060   863.0652   2749.796   4.610409   435482.8   26.86233
  1069.156   250.9420   862.7705   2749.872   4.608635   437084.7   26.86220
  1070.658   250.8830   862.0580   2749.992   4.606925   439016.1   26.86264
  1072.157   250.7830   861.8469   2750.106   4.606292   440893.0   26.86277
  1073.655   250.7620   861.5383   2750.227   4.604202   442906.8   26.86246
  1075.156   250.7140   861.0926   2750.366   4.601225   444669.6   26.86271
  1076.650   250.5280   860.5386   2750.506   4.600528   446377.9   26.86283
  1078.157   250.4570   860.2895   2750.639   4.599199   448188.9   26.86208
  1079.656   250.4450   860.0442   2750.696   4.597425   450003.8   26.86220
  1081.157   250.4350   859.7792   2750.854   4.596411   451425.7   26.86163
  1082.669   250.3400   859.3069   2750.949   4.596158   453044.1   26.86106
  1084.161   250.2950   858.8885   2751.070   4.593688   454883.0   26.86119
  1085.655   250.2680   858.7092   2751.139   4.592295   456021.0   26.86056
  1087.155   250.2240   858.3384   2751.253   4.591724   457100.8   26.86106
  1088.655   250.1250   858.1285   2751.323   4.590458   458569.6   26.86119
  1090.155   250.0950   857.7634   2751.431   4.589001   460257.7   26.86100
  1091.655   250.0050   857.4066   2751.500   4.587481   462157.4   26.86056
  1093.155   249.9240   857.0383   2751.646   4.586720   463907.6   26.86100
  1094.656   249.8100   856.4640   2751.760   4.584440   465733.8   26.86100
  1096.157   249.6910   856.0887   2751.868   4.582477   468116.4   26.85999
  1097.649   249.6310   855.5004   2752.026   4.581210   470773.9   26.86094
  1099.155   249.6140   855.0973   2752.191   4.579817   472560.9   26.86068
  1100.656   249.5460   854.7639   2752.292   4.578234   474525.2   26.86049
  1102.155   249.5010   854.3994   2752.438   4.575763   476365.4   26.86036
  1103.649   249.4190   853.9626   2752.495   4.574306   478541.4   26.86005
  1105.157   249.3480   853.5906   2752.609   4.573547   480207.9   26.85961
  1106.656   249.2520   853.1804   2752.774   4.571393   482062.0   26.86056
  1108.155   249.1820   853.0707   2752.869   4.569999   483914.8   26.85954
  1109.657   249.1030   852.2651   2753.009   4.567593   485662.5   26.85948
  1111.155   249.0710   852.0819   2753.116   4.567340   487605.3   26.86024
  1112.650   249.0060   851.9881   2753.249   4.565250   489223.7   26.85961
  1114.169   248.9660   851.6819   2753.351   4.564553   491046.1   26.85986
  1115.655   248.9260   851.3517   2753.395   4.563856   492478.1   26.86024
  1117.155   248.8530   851.0556   2753.528   4.562716   493878.6   26.86024
  1118.987   248.8360   850.7932   2753.661   4.562082   495431.0   26.85922
  1120.154   248.7950   850.7431   2753.686   4.560689   496613.4   26.85986
  1121.655   248.7490   850.4509   2753.775   4.558599   498058.2   26.85859
  1123.156   248.7200   849.9723   2753.820   4.559169   499108.8   26.85922
  1125.148   248.6400   849.8170   2753.952   4.557269   500817.1   26.85929
  1126.658   248.6170   849.7270   2754.041   4.556509   502066.7   26.85878
  1128.163   248.5800   849.3220   2754.136   4.554988   503137.6   26.85897
  1129.727   248.5090   848.9663   2754.174   4.553215   504450.6   26.85884
  1131.157   248.4770   848.7057   2754.250   4.552455   505614.0   26.85834
  1132.726   248.3430   848.4554   2754.333   4.552456   507503.6   26.85770
  1134.257   248.3300   848.0801   2754.459   4.551631   509241.0   26.85827
  1135.654   248.2950   847.7119   2754.561   4.549921   510669.3   26.85226
  1137.156   248.2000   847.4601   2754.643   4.548465   512508.2   26.85587
  1138.654   248.1480   847.1901   2754.757   4.548022   514345.8   26.85726
  1140.226   248.0230   846.7864   2754.897   4.546185   516757.6   26.85713
  1141.655   248.0090   846.3078   2755.011   4.544158   518540.7   26.85796
  1143.154   247.9180   845.8248   2755.125   4.542702   520617.8   26.85752
  1144.726   247.8510   844.6932   2755.290   4.542131   523483.2   26.85739
  1146.154   247.7640   844.9665   2755.385   4.540864   525459.0   26.85726
  1147.655   247.7110   844.4904   2755.511   4.538015   527455.0   26.85663
  1149.156   247.6840   844.4042   2755.594   4.537381   529131.7   26.85669
  1150.656   247.6350   844.1297   2755.727   4.536051   531091.0   26.85758
  1152.155   247.5590   843.5237   2755.841   4.534467   532950.1   26.85701
  1153.726   247.5020   843.2537   2755.923   4.533264   534642.0   26.85688
  1155.153   247.4730   843.1371   2756.050   4.531680   536052.6   26.85694
  1156.655   247.2450   843.0192   2756.151   4.530731   541124.4   26.85656
  1158.155   247.3170   842.6496   2756.246   4.528577   542570.4   26.85688
  1159.726   247.2680   842.0759   2756.398   4.527184   543727.4   26.85701
  1161.654   247.1870   841.6050   2756.481   4.525726   545266.1   26.85669
  1163.147   247.1160   841.2347   2756.620   4.524776   547079.6   26.85732
  1164.725   247.0900   841.1498   2756.721   4.523320   548697.9   26.85600
  1166.485   247.0100   840.6230   2756.854   4.521673   550764.9   26.85663
  1167.654   247.0030   840.6091   2756.893   4.521800   551930.9   26.85688
  1169.153   246.8900   840.0589   2757.013   4.519393   554885.0   26.85637
  1170.653   246.8880   839.6234   2757.121   4.519773   556443.8   26.85618
  1172.224   246.8080   839.4092   2757.260   4.517873   558052.1   26.85530
  1173.655   246.7680   839.1163   2757.304   4.516353   559548.8   26.85568
  1175.154   246.6640   838.7734   2757.450   4.515276   561310.4   26.85625
  1176.653   246.6450   838.3480   2757.571   4.513186   564814.5   26.85600
  1178.153   246.5050   838.2650   2757.678   4.512616   567284.6   26.85606
  1179.654   246.4640   837.2362   2757.856   4.510652   569744.4   26.85523
  1181.152   246.3110   836.8267   2757.957   4.508879   572498.3   26.85568
  1182.654   246.2690   836.1801   2758.103   4.507232   575489.2   26.85504
  1184.153   246.1760   836.0293   2758.293   4.505205   577747.6   26.85555
  1185.724   246.1340   835.6287   2758.438   4.503685   580031.2   26.85498
  1187.153   246.0320   835.3371   2758.546   4.501405   582307.4   26.85485
  1188.725   246.0070   835.0170   2758.717   4.499948   584468.2   26.85479
  1190.151   245.9150   834.5542   2758.825   4.499442   586508.6   26.85479
  1191.653   245.8660   834.2354   2758.952   4.498049   588348.8   26.85454
  1193.152   245.8470   834.1517   2759.009   4.496718   590150.9   26.85441
  1194.653   245.7920   833.9159   2759.148   4.495325   591925.1   26.85536
  1196.152   245.7530   833.6047   2759.199   4.494248   593461.1   26.85403
  1197.652   245.7160   833.2357   2759.288   4.493298   595137.8   26.85384
  1199.153   245.6690   832.9987   2759.395   4.491778   596640.8   26.85352
  1200.653   245.6390   832.8085   2759.484   4.490384   598166.7   26.85359
  1202.329   245.5520   832.4985   2759.535   4.490321   599901.7   26.85447
  1203.654   245.5310   832.2462   2759.598   4.489181   601796.3   26.85346
  1205.152   245.4610   831.9445   2759.712   4.488421   604114.2   26.85333
  1206.653   245.4180   831.7835   2759.807   4.487534   606385.2   26.85321
  1208.161   245.3410   830.9721   2759.959   4.485824   608534.7   26.85390
  1209.653   245.2580   830.8517   2760.080   4.484304   610627.1   26.85314
  1211.160   245.1940   830.6248   2760.175   4.483354   613055.2   26.85264
  1212.654   245.0990   830.1531   2760.289   4.481580   615934.6   26.85302
  1214.152   245.0610   829.6904   2760.447   4.479997   618317.1   26.85264
  1215.652   244.9850   829.4026   2760.561   4.478731   620619.9   26.85245
  1217.150   244.9420   829.0115   2760.675   4.477907   622846.6   26.85276
  1218.652   244.8710   828.7814   2760.815   4.475564   624832.4   26.85289
  1220.152   244.8230   828.6774   2760.903   4.475563   626923.5   26.85232
  1221.724   244.7990   828.2445   2760.986   4.472650   628484.9   26.85226
  1223.152   244.7210   827.8851   2761.055   4.471320   630069.1   26.85137
  1224.779   244.6860   827.8154   2761.150   4.470940   631873.8   26.85276
  1226.226   244.6700   827.6144   2761.233   4.469293   633577.0   26.85188
  1227.652   244.5910   827.2880   2761.378   4.468533   635105.4   26.85276
  1229.152   244.5790   827.1624   2761.436   4.468533   636552.7   26.85175
  1230.652   244.5230   826.9311   2761.524   4.467646   638121.6   26.85106
  1232.222   244.4930   826.7067   2761.600   4.466316   639718.5   26.85194
  1233.722   244.4910   826.5672   2761.645   4.465429   640866.7   26.85169
  1235.150   244.4470   826.2820   2761.708   4.464480   641968.0   26.85150
  1236.653   244.4140   826.1223   2761.828   4.464352   643424.1   26.85143
  1238.447   244.3670   825.8776   2761.866   4.463276   645477.2   26.85201
  1239.738   244.2970   825.5410   2761.961   4.461819   646720.4   26.85137
  1241.152   244.2480   825.2760   2762.088   4.461882   648024.5   26.85112
  1242.653   244.2040   824.9736   2762.114   4.460426   650803.8   26.85156
  1244.643   244.1220   824.7486   2762.304   4.459665   653392.9   26.85074
  1246.149   244.0840   824.3423   2762.380   4.457576   655380.1   26.85156
  1247.653   243.9900   824.0875   2762.449   4.457005   657577.6   26.85124
  1249.143   243.9820   823.7654   2762.563   4.455359   659311.3   26.85131
  1250.650   243.8670   823.5182   2762.652   4.454345   661469.6   26.85093
  1252.144   243.8230   823.2545   2762.753   4.453142   663983.9   26.85029
  1253.650   243.7900   823.0682   2762.855   4.452508   665669.5   26.85080
  1255.188   243.7490   822.7062   2762.937   4.451178   667170.0   26.85061
  1256.650   243.6000   822.2435   2763.000   4.449088   670082.3   26.85118
  1258.141   243.5810   821.8929   2763.178   4.448771   673030.1   26.85118
  1259.651   243.5090   821.5196   2763.330   4.446998   675970.3   26.85010
  1261.149   243.5070   821.0626   2763.406   4.445984   679547.9   26.84998
  1262.649   243.3960   820.3069   2763.564   4.443515   681789.9   26.85055
  1264.151   243.3730   820.3760   2763.698   4.442374   684471.5   26.84979
  1265.650   243.3240   820.1117   2763.837   4.441551   686902.2   26.85036
  1267.149   243.2420   819.7073   2763.945   4.439651   689557.2   26.84991
  1268.651   243.2090   819.5894   2764.033   4.439144   691506.4   26.84991
  1270.149   243.1460   819.2319   2764.135   4.436674   693648.2   26.84947
  1271.643   243.0840   818.8705   2764.211   4.436231   695858.4   26.84896
  1273.149   243.0440   818.7076   2764.356   4.435154   697949.5   26.84947
  1274.648   242.9480   818.2627   2764.458   4.434014   700477.8   26.84896
  1276.140   242.9330   818.0427   2764.540   4.432367   702319.2   26.84858
  1277.651   242.8660   817.7339   2764.654   4.430910   704525.7   26.84871
  1279.149   242.8410   817.4456   2764.768   4.431037   706645.9   26.84922
  1280.649   242.7870   817.2554   2764.825   4.429707   708188.2   26.84915
  1282.150   242.7120   816.9942   2764.908   4.428314   710134.8   26.84814
  1283.650   242.6850   816.7489   2764.984   4.426920   711936.9   26.84820
  1285.186   242.6410   816.7508   2765.098   4.426667   713565.5   26.84865
  1286.649   242.5900   816.4136   2765.180   4.424640   715266.2   26.84896
  1288.149   242.6050   816.2601   2765.218   4.423057   716803.5   26.84820
  1289.650   242.5200   816.0459   2765.320   4.423184   718288.8   26.84846
  1291.150   242.5000   815.8348   2765.396   4.423437   719994.6   26.84763
  1292.649   242.4610   815.7017   2765.465   4.422677   721590.2   26.84789
  1294.149   242.3800   815.4279   2765.510   4.421979   723183.2   26.84789
  1295.640   242.4090   815.3258   2765.649   4.420269   724819.3   26.84776
  1297.148   242.3590   815.0494   2765.668   4.419953   726234.9   26.84833
  1298.648   242.3100   814.8586   2765.763   4.418306   727781.1   26.84814
  1300.148   242.2970   814.7559   2765.871   4.418496   729367.8   26.84890
  1301.648   242.1710   814.4359   2765.909   4.417040   730998.8   26.84801
  1303.148   242.2160   814.3769   2765.979   4.415646   732632.4   26.84732
  1304.648   242.1350   814.1030   2766.055   4.415013   734173.5   26.84732
  1306.148   242.0870   813.9604   2766.137   4.415330   735717.1   26.84789
  1307.650   242.1180   813.7823   2766.200   4.414316   737367.1   26.84782
  1309.141   242.0880   813.4140   2766.251   4.414190   738767.5   26.84852
  1310.648   242.0540   813.2175   2766.346   4.412923   740710.3   26.84719
  1312.148   241.9650   813.0444   2766.422   4.412036   742547.9   26.84706
  1313.648   241.9740   812.8600   2766.504   4.411212   744339.9   26.84795
  1315.270   241.8720   812.4968   2766.606   4.409946   746289.1   26.84687
  1316.684   241.8360   812.3618   2766.682   4.408426   748035.5   26.84681
  1318.148   241.8420   812.2077   2766.764   4.408236   749756.5   26.84820
  1319.648   241.7290   811.8667   2766.834   4.407666   752308.9   26.84757
  1321.148   241.7390   811.7190   2766.910   4.406588   754633.1   26.84694
  1322.648   241.6340   811.1859   2767.005   4.405195   756935.9   26.84668
  1324.139   241.6110   811.1168   2767.056   4.405132   759092.9   26.84738
  1325.647   241.5660   810.7549   2767.214   4.403802   761522.3   26.84643
  1327.147   241.4860   810.3378   2767.296   4.402535   763676.8   26.84681
  1328.647   241.4820   810.2604   2767.347   4.401522   765605.7   26.84599
  1330.146   241.3900   809.8066   2767.468   4.400635   767657.4   26.84637
  1331.647   241.3930   809.7748   2767.556   4.399621   769567.3   26.84580
  1333.149   241.3030   809.4928   2767.626   4.398545   771858.6   26.84548
  1334.647   241.3060   809.2709   2767.740   4.398355   773701.3   26.84554
  1336.148   241.3180   809.0789   2767.791   4.396518   775083.9   26.84573
  1337.647   241.2540   808.8145   2767.873   4.396201   776897.5   26.84599
  1339.148   241.2300   808.3524   2767.924   4.395695   778518.4   26.84542
  1340.646   241.1180   808.1262   2768.012   4.394238   781748.8   26.84630
  1342.145   241.0500   807.9683   2768.171   4.393225   786413.9   26.84624
  1343.639   241.0030   807.2266   2768.266   4.391198   788873.8   26.84599
  1345.341   240.9570   807.2532   2768.443   4.390311   791549.1   26.84548
  1346.640   240.8640   806.4831   2768.507   4.389361   793784.6   26.84554
  1348.147   240.8350   806.5554   2768.671   4.389044   796378.8   26.84466
  1349.647   240.7810   806.2225   2768.760   4.387587   799059.2   26.84586
  1351.147   240.7470   806.1262   2768.899   4.386574   801260.6   26.84453
  1352.647   240.4890   806.0894   2768.982   4.385117   805124.6   26.84472
  1354.138   240.5220   805.6089   2769.128   4.382647   808130.8   26.84554
  1355.647   240.5440   805.4594   2769.235   4.381190   810358.7   26.84504
  1357.139   240.4360   805.0112   2769.349   4.380303   813012.4   26.84516
  1358.648   240.4390   804.7861   2769.463   4.379354   815264.5   26.84390
  1360.138   240.3770   804.1053   2769.584   4.378341   817553.2   26.84415
  1361.648   240.3490   804.1345   2769.679   4.377074   820227.4   26.84428
  1363.183   240.3200   803.2921   2769.805   4.376820   822253.8   26.84421
  1364.645   240.2380   803.3358   2769.882   4.375744   824630.1   26.84440
  1366.145   240.2400   803.4550   2769.939   4.374983   826458.8   26.84371
  1367.639   240.1640   802.6893   2770.046   4.374096   828871.8   26.84390
  1369.145   240.1330   802.8801   2770.179   4.372640   831469.8   26.84333
  1370.646   240.0710   801.8367   2770.236   4.371627   833251.6   26.84358
  1372.146   240.0450   802.2576   2770.325   4.369473   835664.6   26.84320
  1373.646   240.0190   801.9178   2770.376   4.369409   837492.1   26.84288
  1375.274   239.9440   801.6123   2770.534   4.368777   840243.5   26.84307
  1376.654   239.9300   801.8132   2770.617   4.366940   842041.8   26.84288
  1378.148   239.8640   801.3163   2770.642   4.366559   844049.2   26.84295
  1379.647   239.8410   801.2884   2770.781   4.364976   846279.8   26.84358
  1381.148   239.7850   800.8941   2770.794   4.364659   848099.6   26.84295
  1382.647   239.7560   800.6982   2770.902   4.363836   850456.9   26.84345
  1384.301   239.7130   800.6564   2770.990   4.363519   852425.0   26.84339
  1385.639   239.6840   800.3115   2771.073   4.362126   854222.1   26.84263
  1387.138   239.6800   800.2418   2771.111   4.361113   855803.7   26.84250
  1388.644   239.6040   799.9078   2771.231   4.360859   857714.8   26.84174
  1390.146   239.5770   799.9344   2771.276   4.359465   859743.8   26.84282
  1391.646   239.4900   799.5616   2771.396   4.359086   863298.6   26.84238
  1393.145   239.4630   799.4659   2771.453   4.358389   865431.6   26.84307
  1394.645   239.3510   799.2568   2771.630   4.357312   867668.4   26.84257
  1396.144   239.3360   798.9709   2771.694   4.356488   870408.4   26.84238
  1397.636   239.2980   798.7503   2771.814   4.354335   872775.7   26.84269
  1399.137   239.2180   798.3110   2771.871   4.353386   875880.6   26.84181
  1400.644   239.1320   798.1329   2772.042   4.352118   880204.8   26.84181
  1402.144   239.0380   797.6429   2772.131   4.350598   883327.4   26.84162
  1403.639   239.0930   797.4470   2772.270   4.349269   885407.1   26.84162
  1405.754   239.0410   796.9659   2772.422   4.348825   888562.8   26.84231
  1407.143   238.9810   796.7605   2772.492   4.347621   890888.3   26.84181
  1408.646   238.9270   796.4417   2772.524   4.346481   893298.8   26.84162
  1410.144   238.9250   796.3859   2772.663   4.346482   895293.5   26.84155
  1411.637   238.8530   795.9434   2772.701   4.345025   897246.5   26.84105
  1413.144   238.8530   795.9497   2772.815   4.344771   899122.1   26.84124
  1414.645   238.7970   795.5694   2772.891   4.343441   901040.8   26.84143
  1416.145   238.7990   795.5656   2772.955   4.342681   902747.9   26.84098
  1417.637   238.7390   795.2747   2773.018   4.342301   904759.2   26.84098
  1419.143   238.7360   795.2037   2773.088   4.341667   906399.1   26.84130
  1420.645   238.6850   794.8835   2773.189   4.340527   908665.1   26.84029
  1422.143   238.6780   794.8208   2773.233   4.339387   910354.4   26.84086
  1423.637   238.6070   794.5178   2773.233   4.339768   911932.2   26.84029
  1425.143   238.6090   794.4842   2773.366   4.338058   913413.8   26.84003
  1426.637   238.5150   794.2230   2773.423   4.336790   915575.8   26.84041
  1428.143   238.5270   794.1235   2773.519   4.337107   917194.2   26.84086
  1429.637   238.4730   793.8452   2773.575   4.335524   919357.5   26.84073
  1431.143   238.4310   793.7216   2773.664   4.335080   921444.8   26.84003
  1432.637   238.3870   793.4554   2773.740   4.333878   923679.1   26.84022
  1434.143   238.3350   792.9356   2773.861   4.333244   926150.4   26.84060
  1435.645   238.2990   792.8336   2773.911   4.331787   928107.1   26.83978
  1437.136   238.2300   792.8228   2774.007   4.331723   931686.0   26.84010
  1438.645   238.1760   791.9981   2774.108   4.330521   935424.6   26.84041
  1440.135   238.0570   792.1426   2774.209   4.328810   939864.1   26.84003
  1441.643   238.0160   791.0757   2774.374   4.327987   943751.0   26.83940
  1443.142   237.8410   790.9002   2774.507   4.326466   948417.2   26.83934
  1444.643   237.8800   790.8894   2774.608   4.325010   951792.1   26.83991
  1446.142   237.7520   790.5928   2774.817   4.322856   955908.4   26.83908
  1447.643   237.7920   790.3094   2774.925   4.321779   959647.0   26.83883
  1449.141   237.5980   789.8606   2775.090   4.320703   963770.9   26.83927
  1450.644   237.6450   789.5950   2775.229   4.319753   966911.3   26.83896
  1452.141   237.5140   789.1361   2775.375   4.318550   970599.2   26.83915
  1453.642   237.5610   788.9884   2775.508   4.316966   973777.7   26.83845
  1455.142   237.3970   788.7006   2775.597   4.316016   977029.7   26.83832
  1456.642   237.4590   788.2512   2775.730   4.313482   979588.4   26.83839
  1458.142   237.2930   788.2100   2775.812   4.312533   982647.7   26.83801
  1459.636   237.3480   787.9038   2775.907   4.311835   985339.5   26.83851
  1461.142   237.2130   787.7751   2775.971   4.309999   988000.9   26.83782
  1462.642   237.2360   787.4823   2776.110   4.308733   992037.3   26.83801
  1464.136   237.1610   787.2427   2776.275   4.307149   994897.6   26.83870
  1465.642   237.1410   786.9257   2776.376   4.306578   997780.8   26.83782
  1467.141   237.1160   786.6664   2776.465   4.304869   999496.8   26.83826
  1468.642   237.0910   786.4059   2776.528   4.304362    1002128   26.83680
  1470.142   237.0920   786.3495   2776.611   4.303475    1003979   26.83775
  1471.641   237.0160   786.1175   2776.642   4.303728    1006489   26.83693
  1473.142   237.0330   786.0167   2776.731   4.302778    1008262   26.83826
  1474.642   236.9760   785.7796   2776.763   4.302588    1010326   26.83763
  1476.142   236.9780   785.6953   2776.877   4.301955    1012403   26.83604
  1477.642   236.9370   785.4456   2776.908   4.300942    1014370   26.83731
  1479.140   236.9200   785.2852   2776.991   4.300815    1016021   26.83674
  1480.634   236.8730   785.0392   2777.067   4.300308    1018024   26.83763
  1482.974   236.8250   784.6798   2777.162   4.299168    1020896   26.83725
  1484.142   236.7970   784.6367   2777.212   4.299169    1022442   26.83744
  1485.686   236.7540   784.3914   2777.289   4.297965    1024369   26.83706
  1487.137   236.7170   784.2900   2777.345   4.296825    1026742   26.83623
  1488.642   236.6360   783.8286   2777.479   4.296761    1028891   26.83674
  1490.133   236.6100   783.8120   2777.542   4.295368    1031759   26.83630
  1491.635   236.5430   782.0688   2777.625   4.294671    1033918   26.83649
  1493.142   236.5300   782.5740   2777.700   4.293974    1036399   26.83680
  1494.642   236.5110   783.0146   2777.789   4.292962    1038392   26.83674
  1496.140   236.4970   783.0539   2777.865   4.292391    1040796   26.83655
  1497.641   236.4480   782.8080   2777.909   4.291884    1042678   26.83687
  1499.141   236.4320   782.6951   2778.023   4.291377    1044967   26.83604
  1500.641   236.3910   782.4575   2778.042   4.289731    1046853   26.83598
  1502.141   236.3770   782.3731   2778.163   4.289858    1049073   26.83554
  1503.641   236.3320   782.0739   2778.195   4.289098    1050886   26.83655
  1505.141   236.3230   782.0232   2778.239   4.288274    1052903   26.83649
  1506.641   236.2880   781.8660   2778.328   4.287514    1054913   26.83547
  1508.614   236.2610   781.7462   2778.429   4.286944    1057420   26.83617
  1510.154   236.2320   781.5510   2778.511   4.285994    1059705   26.83528
  1511.633   236.1790   781.4432   2778.518   4.285740    1061816   26.83478
  1513.133   236.1420   781.2493   2778.619   4.285044    1063789   26.83503
  1514.641   236.0970   781.1510   2778.695   4.284094    1065612   26.83516
  1516.141   236.0740   780.9576   2778.708   4.283777    1067456   26.83585
  1517.639   236.0460   780.7643   2778.746   4.282701    1069405   26.83560
  1519.134   236.0180   780.6008   2778.841   4.282321    1071568   26.83585
  1520.640   236.0010   780.4373   2778.892   4.282257    1074034   26.83516
  1522.141   235.9970   780.2648   2778.917   4.280041    1076602   26.83522
  1523.641   235.9700   780.0721   2779.063   4.280041    1079050   26.83490
  1525.140   235.9350   779.8604   2779.139   4.279470    1081182   26.83484
  1526.634   235.8990   779.6569   2779.189   4.278774    1083324   26.83465
  1528.139   235.8670   779.4553   2779.284   4.276937    1085514   26.83503
  1529.640   235.7670   779.2747   2779.367   4.277063    1088630   26.83459
  1531.139   235.7230   779.0243   2779.455   4.277126    1092958   26.83440
  1532.640   235.6650   778.7454   2779.531   4.275163    1095712   26.83383
  1534.139   235.6350   778.4481   2779.665   4.274213    1099713   26.83357
  1535.796   235.5930   778.1362   2779.804   4.274023    1102331   26.83427
  1537.139   235.5730   777.9537   2779.861   4.272250    1104375   26.83522
  1538.640   235.5160   777.7299   2779.931   4.271236    1106564   26.83433
  1540.140   235.4420   777.5461   2780.038   4.270097    1109445   26.83414
  1541.639   235.3970   776.7264   2780.171   4.269780    1113021   26.83414
  1543.139   235.3870   777.0282   2780.235   4.268387    1116553   26.83383
  1544.638   235.3700   776.8481   2780.349   4.268197    1119676   26.83446
  1546.140   235.3220   776.7296   2780.412   4.266993    1121636   26.83389
  1547.638   235.2460   776.5895   2780.476   4.265726    1124518   26.83370
  1549.139   235.1620   776.4976   2780.564   4.266043    1129643   26.83313
  1550.640   235.1220   773.9272   2780.767   4.265030    1132418   26.83319
  1552.140   235.0620   775.0891   2780.843   4.264396    1135211   26.83389
  1553.640   235.0280   774.3633   2780.976   4.262812    1136510   26.83332
  1555.139   234.9120   773.0543   2781.014   4.261672    1138702   26.83338
  1556.640   234.9450   774.5573   2781.078   4.261039    1140544   26.83357
  1558.138   234.9600   775.0130   2781.192   4.260722    1145187   26.83256
  1559.691   234.9140   774.9598   2781.274   4.259266    1148913   26.83250
  1561.151   234.8770   774.7158   2781.306   4.258442    1152098   26.83300
  1562.644   234.8400   774.4191   2781.439   4.257555    1156218   26.83319
  1564.145   234.8250   774.1408   2781.527   4.257112    1160149   26.83313
  1565.804   234.7940   773.8841   2781.610   4.255909    1163524   26.83326
  1567.261   234.7650   773.6616   2781.705   4.255149    1166111   26.83212
  1568.701   234.7280   773.4226   2781.749   4.253819    1169140   26.83262
  1570.201   234.6940   773.2648   2781.844   4.253946    1171895   26.83186
  1571.775   234.6390   773.0803   2781.952   4.252489    1174376   26.83212
  1573.216   234.6210   772.9079   2782.009   4.251095    1175581   26.83231
  1574.778   234.5910   772.7050   2782.072   4.251221    1177340   26.83212
  1576.201   234.5610   772.5092   2782.180   4.250209    1179120   26.83256
  1577.656   234.5320   772.3532   2782.186   4.249702    1181102   26.83174
  1579.139   234.4960   772.1897   2782.294   4.249891    1183325   26.83180
  1580.647   234.4680   771.9932   2782.370   4.247674    1185722   26.83237
  1582.138   234.4390   771.8499   2782.434   4.247865    1187902   26.83167
  1583.640   234.4050   771.7003   2782.484   4.246471    1190351   26.83148
  1585.137   234.3670   771.5463   2782.573   4.246092    1192930   26.83117
  1586.639   234.3320   771.4088   2782.649   4.245078    1195135   26.83117
  1588.137   234.3010   771.1894   2782.706   4.244192    1197969   26.83155
  1589.709   234.2660   771.0480   2782.763   4.243685    1239787   26.82971
  1591.137   234.2520   770.8275   2782.845   4.242418    1243078   26.83015
  1593.138   234.2070   770.6601   2782.915   4.242608    1252408   26.82939
  1595.139   234.1640   770.3527   2783.004   4.240264    1263573   26.82977
  1597.209   234.1110   769.8025   2783.207   4.239124    1275029   26.83009
  1599.138   234.0520   769.5223   2783.359   4.236021    1283840   26.82971
  1601.138   233.9790   769.2446   2783.523   4.236084    1290119   26.82965
  1603.137   233.9250   768.7388   2783.682   4.235070    1296600   26.82914
  1605.137   233.8560   767.9877   2783.853   4.233297    1302752   26.82908
  1607.138   233.8050   766.8600   2784.074   4.230447    1305119   26.82870
  1609.138   233.7530   766.5018   2784.227   4.229877    1310031   26.82787
  1611.136   233.6830   766.5056   2784.436   4.228674    1310196   26.82711
  1613.137   233.6450   766.3826   2784.524   4.227597    1310398   26.82667
  1615.136   233.6050   766.6483   2784.664   4.225253    1310942   26.82768
  1617.207   233.5580   766.5811   2784.721   4.224874    1314550   26.82730
  1619.137   233.5000   766.4739   2784.778   4.223543    1317183   26.82718
  1621.207   233.4460   766.1196   2784.911   4.223416    1319550   26.82743
  1623.137   233.4060   765.9009   2784.993   4.222846    1322044   26.82648
  1625.208   233.3450   765.6074   2785.101   4.222086    1324867   26.82781
  1627.208   233.2620   765.3151   2785.209   4.221327    1328690   26.82686
  1629.137   233.2430   765.1326   2785.291   4.219870    1331032   26.82768
  1631.136   233.2140   764.9703   2785.418   4.218793    1333475   26.82718
  1633.136   233.1710   764.7789   2785.494   4.217653    1336286   26.82718
  1635.136   233.1310   764.6179   2785.551   4.217019    1339083   26.82705
  1637.136   233.0900   764.4156   2785.614   4.216576    1342020   26.82680
  1639.135   233.0500   764.1855   2785.728   4.215372    1345210   26.82642
  1641.136   233.0110   763.9871   2785.817   4.215500    1347577   26.82686
  1643.208   232.9660   763.8002   2785.937   4.214676    1350299   26.82597
  1645.135   232.9350   763.6055   2785.994   4.212839    1353198   26.82692
  1647.136   232.9040   763.4261   2786.089   4.212649    1356046   26.82591
  1649.135   232.8660   763.2493   2786.178   4.211889    1359502   26.82711
  1651.207   232.8270   763.0439   2786.241   4.212332    1363591   26.82705
  1653.135   232.7960   762.8538   2786.317   4.210622    1366591   26.82591
  1655.135   232.7650   762.6566   2786.413   4.209926    1370515   26.82566
  1656.635   232.7400   762.5076   2786.463   4.208279    1373566   26.82642
  1658.137   232.7160   762.3632   2786.482   4.208595    1376136   26.82642
  1659.636   232.6960   762.2110   2786.514   4.208215    1378326   26.82616
  1661.137   232.6710   762.0532   2786.641   4.207265    1381643   26.82585
  1662.635   232.6460   761.9225   2786.704   4.208025    1384288   26.82585
  1664.555   232.6150   761.7400   2786.780   4.206632    1386668   26.82597
  1666.634   232.5770   761.5391   2786.888   4.204985    1389466   26.82616
  1668.127   232.5540   761.4104   2786.945   4.205175    1392491   26.82610
  1669.635   232.5260   761.2653   2786.958   4.204035    1394694   26.82591
  1671.135   232.5000   761.1201   2787.008   4.203845    1396593   26.82547
  1672.643   232.4740   760.9705   2787.141   4.203846    1400251   26.82566
  1674.139   232.4400   760.8329   2787.179   4.202262    1402910   26.82508
  1675.635   232.4110   760.6973   2787.217   4.202008    1405201   26.82528
  1677.135   232.3810   760.5591   2787.281   4.202578    1406783   26.82502
  1678.637   232.3520   760.4209   2787.369   4.200995    1409062   26.82591
  1680.133   232.3300   760.2776   2787.458   4.200931    1412429   26.82490
  1681.633   232.3020   760.1274   2787.502   4.199729    1415898   26.82572
  1683.126   232.2740   759.9766   2787.534   4.199285    1418644   26.82490
  1684.633   232.2490   759.8199   2787.642   4.198779    1420227   26.82483
  1686.626   232.2130   759.6076   2787.705   4.198335    1423265   26.82490
  1688.135   232.1860   759.4415   2787.851   4.197002    1426810   26.82559
  1689.627   232.1580   759.2824   2787.876   4.196750    1429265   26.82483
  1691.134   232.1280   759.1227   2787.902   4.195610    1431190   26.82483
  1692.628   232.0940   758.9585   2788.035   4.196052    1433721   26.82471
  1694.215   232.0670   758.7855   2788.136   4.194912    1438266   26.82496
  1696.135   232.0280   758.5820   2788.219   4.193836    1445241   26.82338
  1697.634   232.0020   758.4121   2788.282   4.193393    1441506   26.82451
  1699.133   231.9760   758.2631   2788.301   4.192696    1448595   26.82433
  1700.634   231.9490   758.1281   2788.440   4.191619    1452077   26.82401
  1702.132   231.9210   757.9798   2788.491   4.191492    1455393   26.82420
  1703.634   231.8910   757.8296   2788.522   4.191239    1457925   26.82451
  1705.140   231.8670   757.6749   2788.662   4.191049    1460988   26.82382
  1706.640   231.8410   757.5164   2788.694   4.189592    1465077   26.82319
  1708.132   231.8050   757.3624   2788.750   4.189212    1469293   26.82306
  1709.633   231.7870   757.2077   2788.808   4.188389    1469128   26.82395
  1711.132   231.7660   757.0556   2788.890   4.187882    1473141   26.82363
  1712.627   231.7470   756.9161   2788.991   4.187819    1475774   26.82357
  1714.132   231.7240   756.7798   2789.010   4.187312    1477090   26.82401
  1716.134   231.6900   756.6106   2789.080   4.186679    1478572   26.82319
  1717.634   231.6610   756.5060   2789.181   4.186488    1479243   26.82357
  1719.142   231.6330   756.4033   2789.245   4.184905    1482078   26.82401
  1721.099   231.5960   756.2461   2789.302   4.184399    1483774   26.82312
  1722.632   231.5670   756.1054   2789.333   4.184145    1486813   26.82356
  1724.132   231.5370   755.9685   2789.390   4.183638    1488496   26.82312
  1725.633   231.5100   755.8176   2789.505   4.182878    1492306   26.82306
  1727.132   231.4810   755.6477   2789.524   4.182561    1494636   26.82363
  1728.633   231.4520   755.4722   2789.562   4.181295    1496092   26.82306
  1730.133   231.4280   755.3016   2789.701   4.181231    1499509   26.82287
  1731.632   231.3970   755.1400   2789.726   4.180598    1501434   26.82293
  1733.123   231.3710   754.9935   2789.726   4.180282    1503168   26.82204
  1734.642   231.3320   754.8420   2789.878   4.179838    1506408   26.82198
  1736.635   231.2900   754.6360   2789.929   4.179585    1508118   26.82243
  1738.133   231.2590   754.4858   2790.005   4.178128    1511485   26.82217
  1739.633   231.2420   754.3394   2790.024   4.177748    1513662   26.82261
  1741.544   231.1770   754.1879   2790.087   4.177241    1516979   26.82262
  1743.131   231.1540   754.0402   2790.195   4.175658    1520814   26.82261
  1744.633   231.1400   753.8627   2790.252   4.175405    1523498   26.82217
  1746.132   231.1000   753.7765   2790.271   4.174645    1525156   26.82249
  1747.634   231.0580   753.4811   2790.430   4.173695    1527106   26.82230
  1749.146   231.0110   753.2079   2790.493   4.173695    1530802   26.82192
  1750.635   230.9820   752.9943   2790.512   4.173188    1533043   26.82160
  1752.205   230.9690   752.7230   2790.588   4.172111    1535056   26.82192
  1754.203   230.9610   752.7375   2790.689   4.172428    1537600   26.82192
  1756.131   230.9420   752.7464   2790.784   4.171667    1540157   26.82211
  1757.630   230.9270   752.6735   2790.854   4.170528    1543284   26.82116
  1759.131   230.9060   752.5689   2790.873   4.170654    1545537   26.82198
  1760.639   230.8860   752.4510   2790.943   4.169388    1546385   26.82205
  1762.627   230.8610   752.3052   2790.962   4.169514    1549702   26.82186
  1764.131   230.8390   752.1892   2791.070   4.168818    1551955   26.82129
  1765.631   230.8190   752.0714   2791.114   4.168754    1554690   26.82122
  1767.129   230.7980   751.9433   2791.120   4.168121    1556386   26.82198
  1768.624   230.7790   751.8222   2791.228   4.168627    1557538   26.82129
  1770.133   230.7590   751.6853   2791.317   4.167804    1560918   26.82160
  1771.629   230.7370   751.5680   2791.317   4.166727    1562816   26.82129
  1773.130   230.7170   751.4450   2791.406   4.166600    1563614   26.82052
  1774.629   230.6980   751.3373   2791.475   4.166094    1566348   26.82148
  1776.623   230.6730   751.1167   2791.551   4.165334    1569209   26.82097
  1778.630   230.6470   750.9601   2791.615   4.165271    1570197   26.82141
  1780.131   230.6280   750.8099   2791.615   4.164764    1571627   26.82097
  1781.630   230.6100   750.6958   2791.691   4.164257    1572311   26.82135
  1783.126   230.5930   750.6026   2791.760   4.163687    1574805   26.82141
  1784.622   230.5730   750.4619   2791.805   4.163560    1577147   26.82110
  1786.221   230.5550   750.3345   2791.817   4.163688    1577577   26.82046
  1788.128   230.5340   750.1995   2791.893   4.162864    1579729   26.82027
  1789.630   230.5160   750.0828   2791.950   4.162104    1582818   26.82053
  1791.122   230.4970   749.9808   2791.976   4.161723    1583894   26.81996
  1792.630   230.4820   749.9028   2792.001   4.160963    1584388   26.82027
  1794.130   230.4680   749.8153   2792.077   4.161217    1587413   26.82084
  1795.630   230.4530   749.7145   2792.090   4.161090    1588388   26.82091
  1797.140   230.4380   749.6365   2792.134   4.160964    1589122   26.82027
  1799.083   230.4180   749.5440   2792.178   4.159444    1592173   26.82002
  1800.648   230.4030   749.4590   2792.216   4.159254    1593628   26.81996
  1802.639   230.3850   749.3976   2792.261   4.160140    1595818   26.82027
  1804.260   230.3690   749.3051   2792.312   4.159127    1597414   26.82040
  1806.122   230.3500   749.2423   2792.305   4.158367    1598376   26.82059
  1807.629   230.3360   749.1770   2792.413   4.158620    1601135   26.82014
  1809.121   230.3200   749.1111   2792.419   4.157353    1602439   26.82052
  1810.639   230.3060   749.0515   2792.464   4.157860    1603199   26.81983
  1812.129   230.2930   748.9919   2792.508   4.156974    1605882   26.81996
  1813.621   230.2790   748.9418   2792.508   4.156847    1606578   26.82059
  1815.129   230.2670   748.8784   2792.552   4.155960    1607806   26.82008
  1817.129   230.2470   748.7922   2792.622   4.155580    1610882   26.81977
  1818.623   230.2350   748.7314   2792.616   4.155897    1612275   26.82084
  1820.629   230.2170   748.6382   2792.628   4.154820    1614035   26.81989
  1822.122   230.2040   748.5717   2792.685   4.154883    1614376   26.81970
  1823.629   230.1900   748.4987   2792.755   4.154503    1617035   26.82078
  1825.128   230.1750   748.4499   2792.729   4.153933    1618465   26.81983
  1827.200   230.1550   748.3707   2792.793   4.154060    1620807   26.81945
  1829.129   230.1360   748.2896   2792.799   4.154377    1621807   26.82052
  1830.757   230.1190   748.2211   2792.856   4.153934    1623972   26.82002
  1832.700   230.0980   748.1374   2792.939   4.152476    1625795   26.81977
  1834.629   230.0780   748.0538   2792.977   4.152477    1628934   26.81977
  1836.127   230.0630   747.9840   2792.958   4.151970    1629630   26.82021
  1837.636   230.0460   747.9282   2793.015   4.151843    1630744   26.81888
  1839.213   230.0300   747.8668   2793.046   4.151526    1633403   26.81932
  1841.250   230.0100   747.7900   2793.046   4.151526    1635340   26.81913
  1843.140   229.9800   747.7146   2793.129   4.150323    1638188   26.81964
  1844.637   229.9660   747.6575   2793.116   4.149690    1638757   26.82027
  1846.129   229.8530   747.5923   2793.160   4.149120    1640732   26.81970
  1847.627   229.9170   747.5181   2793.230   4.150386    1644175   26.81888
  1849.128   229.9180   747.4313   2793.249   4.148233    1645315   26.82002
  1850.621   229.9010   747.3292   2793.249   4.148423    1646656   26.81882
  1852.123   229.8890   747.2100   2793.344   4.148422    1650986   26.81989
  1853.627   229.8750   747.1416   2793.338   4.147600    1652556   26.81850
  1855.127   229.8620   747.0782   2793.408   4.148486    1654834   26.81844
  1857.127   229.8460   746.9875   2793.458   4.147282    1658493   26.81894
  1858.627   229.8340   746.8900   2793.446   4.146839    1659569   26.81945
  1860.127   229.8220   746.7898   2793.490   4.146079    1660467   26.81824
  1861.683   229.8160   746.7308   2793.522   4.145890    1662202   26.81824
  1863.626   229.8020   746.6820   2793.573   4.144686    1665480   26.81926
  1865.128   229.7920   746.6357   2793.560   4.144686    1665607   26.81882
  1867.129   229.7800   746.5654   2793.667   4.144686    1667607   26.81875
  1868.627   229.7730   746.5159   2793.667   4.145066    1669658   26.81882
  1870.128   229.7620   746.4684   2793.623   4.145193    1670151   26.81856
  1871.628   229.7530   746.4189   2793.725   4.143926    1671455   26.81837
  1873.119   229.7430   746.3727   2793.737   4.142785    1673215   26.81837
  1874.627   229.7340   746.3226   2793.718   4.142849    1673278   26.81869
  1876.126   229.7250   746.2719   2793.788   4.143862    1675329   26.81793
  1877.628   229.7160   746.2269   2793.794   4.143039    1676038   26.81844
  1879.127   229.7080   746.1774   2793.794   4.142596    1676139   26.81837
  1880.626   229.6980   746.1293   2793.870   4.142976    1678949   26.81825
  1882.127   229.6900   746.0855   2793.838   4.142469    1678962   26.81888
  1883.621   229.6810   746.0399   2793.864   4.142659    1679494   26.81837
  1885.126   229.6710   745.9930   2793.921   4.141836    1682342   26.81869
  1887.126   229.6580   745.9290   2793.927   4.141329    1684798   26.81787
  1889.127   229.6390   745.8624   2793.915   4.141139    1686747   26.81888
  1890.621   229.6330   745.7927   2794.010   4.141139    1685570   26.81730
  1892.127   229.6230   745.7255   2794.041   4.141013    1686330   26.81787
  1893.698   229.6120   745.6025   2794.035   4.140253    1685671   26.81780
  1895.626   229.6030   745.5828   2794.079   4.140126    1685241   26.81862
  1897.196   229.5950   745.6057   2794.117   4.140253    1686886   26.81761
  1899.128   229.5860   745.5645   2794.092   4.139745    1687368   26.81926
  1900.625   229.5750   745.5208   2794.104   4.140189    1686671   26.81818
  1902.138   229.5670   745.4643   2794.136   4.138922    1688785   26.81862
  1903.962   229.5590   745.3990   2794.130   4.139619    1689545   26.81831
  1905.850   229.5490   745.3394   2794.174   4.138859    1690836   26.81799
  1907.900   229.5400   745.2703   2794.219   4.139302    1692418   26.81824
  1909.636   229.5340   745.2323   2794.231   4.138289    1693178   26.81767
  1911.634   229.5240   745.1816   2794.219   4.138732    1693203   26.81780
  1913.127   229.5180   745.1499   2794.263   4.138922    1693583   26.81875
  1914.623   229.5090   745.1182   2794.301   4.138606    1696204   26.81824
  1916.168   229.5020   745.0802   2794.326   4.138289    1697102   26.81755
  1918.141   229.4960   745.0320   2794.320   4.138225    1698166   26.81805
  1919.621   229.4870   745.0009   2794.352   4.137402    1700254   26.81812
  1921.117   229.4810   744.9636   2794.326   4.136895    1699014   26.81774
  1922.627   229.4780   744.9160   2794.377   4.137338    1699178   26.81805
  1924.123   229.4670   744.8735   2794.371   4.136516    1700368   26.81799
  1925.625   229.4530   744.8425   2794.390   4.137846    1699621   26.81774
  1927.178   229.4540   744.8159   2794.403   4.136325    1700216   26.81755
  1929.125   229.4380   744.8228   2794.447   4.135882    1703837   26.81824
  1930.627   229.4330   744.7651   2794.459   4.136516    1702723   26.81812
  1932.134   229.4180   744.6143   2794.504   4.135628    1704951   26.81831
  1933.699   229.4140   744.5515   2794.504   4.135375    1705381   26.81755
  1935.696   229.4050   744.4241   2794.497   4.136072    1705723   26.81654
  1937.626   229.4070   744.5007   2794.561   4.135882    1705989   26.81704
  1939.125   229.4030   744.4887   2794.593   4.135819    1707748   26.81749
  1940.624   229.4010   744.4767   2794.554   4.135502    1706318   26.81780
  1942.195   229.4000   744.4697   2794.605   4.134869    1707546   26.81780
  1944.197   229.3960   744.4589   2794.612   4.134489    1708672   26.81793
  1946.124   229.3910   744.4355   2794.567   4.134235    1708533   26.81767
  1947.624   229.3880   744.4215   2794.605   4.134742    1708166   26.81761
  1949.124   229.3840   744.4069   2794.612   4.133792    1710002   26.81742
  1950.695   229.3820   744.3917   2794.580   4.134869    1709407   26.81730
  1952.627   229.3790   744.3721   2794.637   4.134552    1709812   26.81723
  1954.126   229.3770   744.3556   2794.643   4.135248    1710837   26.81710
  1955.620   229.3730   744.3404   2794.599   4.134425    1709521   26.81850
  1957.625   229.3690   744.3195   2794.656   4.133919    1710761   26.81704
  1959.122   229.3660   744.3062   2794.656   4.134235    1711900   26.81793
  1960.624   229.3640   744.2910   2794.649   4.134299    1710495   26.81761
  1962.115   229.3610   744.2764   2794.675   4.134869    1712166   26.81793
  1963.702   229.3580   744.2637   2794.643   4.134806    1711951   26.81780
  1965.765   229.3570   744.2428   2794.662   4.133665    1712774   26.81761
  1967.624   229.3530   744.2250   2794.700   4.133412    1712293   26.81717
  1969.115   229.3480   744.2130   2794.694   4.133158    1714369   26.81742
  1970.624   229.3470   744.1996   2794.662   4.133221    1712673   26.81793
  1972.131   229.3450   744.1863   2794.719   4.134236    1714230   26.81723
  1973.623   229.3420   744.1762   2794.719   4.133412    1714837   26.81761
  1975.115   229.3400   744.1616   2794.681   4.133348    1713534   26.81736
  1977.122   229.3380   744.1445   2794.719   4.133919    1714014   26.81793
  1978.622   229.3360   744.1312   2794.726   4.133475    1715977   26.81704
  1980.122   229.3320   744.1172   2794.719   4.133348    1714394   26.81837
  1981.624   229.3290   744.1033   2794.738   4.133348    1715951   26.81736
  1983.122   229.3270   744.0938   2794.719   4.133032    1716407   26.81736
  1984.624   229.3240   744.0767   2794.751   4.133538    1715420   26.81710
  1986.480   229.3230   744.0627   2794.745   4.133411    1716888   26.81761
  1988.138   229.3190   744.0494   2794.713   4.132715    1716318   26.81685
  1989.636   229.3160   744.0361   2794.795   4.132525    1717407   26.81749
  1991.134   229.3140   744.0241   2794.763   4.133095    1717521   26.81672
  1992.629   229.3120   744.0127   2794.751   4.133475    1716534   26.81704
  1994.194   229.3100   743.9968   2794.776   4.132842    1717483   26.81730
  1996.123   229.3070   743.9829   2794.770   4.133221    1717863   26.81692
  1997.622   229.3040   743.9702   2794.776   4.132715    1716977   26.81698
  1999.122   229.3020   743.9569   2794.802   4.132841    1719015   26.81824
  2000.635   229.2990   743.9474   2794.808   4.132462    1717749   26.81730
  2002.455   229.2980   743.9296   2794.827   4.132525    1718432   26.81736
  2004.124   229.2960   743.9201   2794.814   4.132082    1719597   26.81730
  2005.614   229.2950   743.9074   2794.789   4.132652    1717951   26.81710
  2007.121   229.2920   743.8979   2794.833   4.132335    1719774   26.81818
  2008.615   229.2900   743.8878   2794.783   4.131511    1719660   26.81780
  2010.121   229.2870   743.8751   2794.852   4.132271    1719888   26.81704
  2011.615   229.2860   743.8650   2794.833   4.132335    1720407   26.81787
  2013.122   229.2830   743.8549   2794.833   4.131892    1719357   26.81767
  2014.624   229.2810   743.8466   2794.852   4.132208    1721217   26.81710
  2016.115   229.2800   743.8314   2794.808   4.131891    1719673   26.81710
  2017.621   229.2770   743.8219   2794.859   4.132018    1721559   26.81761
  2019.121   229.2770   743.8124   2794.795   4.131955    1720395   26.81698
  2020.629   229.2740   743.8010   2794.871   4.132209    1722116   26.81692
  2022.121   229.2730   743.7914   2794.833   4.132272    1721091   26.81787
  2023.756   229.2700   743.7800   2794.802   4.132082    1721559   26.81749
  2025.622   229.2670   743.7667   2794.890   4.132271    1722698   26.81761
  2027.121   229.2660   743.7591   2794.859   4.131638    1721255   26.81749
  2028.621   229.2660   743.7465   2794.884   4.131955    1723015   26.81780
  2030.113   229.2640   743.7382   2794.852   4.131322    1722420   26.81755
  2031.615   229.2600   743.7274   2794.909   4.131322    1723382   26.81749
  2033.120   229.2580   743.7186   2794.859   4.131195    1722547   26.81577
  2034.621   229.2580   743.7078   2794.922   4.131575    1723344   26.81692
  2036.120   229.2560   743.6995   2794.878   4.131575    1723597   26.81742
  2037.620   229.2540   743.6907   2794.922   4.131005    1723610   26.81672
  2039.613   229.2520   743.6767   2794.928   4.131448    1724547   26.81742
  2041.114   229.2490   743.6697   2794.865   4.131068    1723407   26.81793
  2042.622   229.2480   743.6590   2794.941   4.131512    1725243   26.81673
  2044.119   229.2470   743.6514   2794.896   4.130688    1723420   26.81704
  2045.626   229.2460   743.6431   2794.928   4.131512    1725420   26.81749
  2047.120   229.2440   743.6342   2794.878   4.131005    1724471   26.81704
  2048.622   229.2440   743.6248   2794.954   4.131258    1726040   26.81761
  2050.113   229.2390   743.6171   2794.916   4.131575    1725344   26.81749
  2051.622   229.2390   743.6063   2794.954   4.131005    1725775   26.81654
  2053.128   229.2390   743.5994   2794.884   4.130942    1725332   26.81723
  2054.620   229.2370   743.5918   2794.966   4.131322    1726078   26.81704
  2056.128   229.2330   743.5836   2794.909   4.131385    1725471   26.81698
  2057.620   229.2320   743.5721   2794.947   4.130435    1726053   26.81672
  2059.118   229.2290   743.5671   2794.935   4.129992    1726648   26.81749
  2060.623   229.2290   743.5582   2794.979   4.130561    1727078   26.81723
  2062.118   229.2300   743.5455   2794.948   4.131258    1726762   26.81812
  2063.625   229.2260   743.5411   2794.973   4.130752    1727243   26.81647
  2065.620   229.2240   743.5303   2794.973   4.129738    1727787   26.81736
  2067.111   229.2220   743.5227   2794.954   4.130625    1726256   26.81685
  2068.619   229.2200   743.5157   2794.966   4.130118    1727876   26.81660
  2070.128   229.2190   743.5081   2794.985   4.129865    1727306   26.81660
  2071.621   229.2190   743.5018   2794.973   4.130751    1728382   26.81704
  2073.119   229.2180   743.4910   2794.979   4.129738    1727256   26.81647
  2074.619   229.2160   743.4853   2794.985   4.129802    1728699   26.81780
  2076.190   229.2140   743.4789   2794.973   4.130688    1727344   26.81723
  2078.192   229.2140   743.4669   2794.985   4.130372    1727952   26.81755
  2080.827   229.2110   743.4574   2794.960   4.131005    1727876   26.81698
  2082.613   229.2090   743.4492   2794.966   4.130625    1729446   26.81647
  2084.113   229.2080   743.4428   2795.004   4.130815    1728154   26.81660
  2085.619   229.2060   743.4352   2794.992   4.130245    1729813   26.81692
  2087.620   229.2050   743.4263   2794.941   4.130498    1729003   26.81679
  2089.120   229.2030   743.4206   2795.030   4.129612    1730256   26.81755
  2090.617   229.2020   743.4149   2794.992   4.129611    1729509   26.81774
  2092.126   229.2030   743.4067   2795.036   4.130309    1730193   26.81742
  2093.693   229.2010   743.3990   2795.036   4.129548    1730471   26.81704
  2095.614   229.1990   743.3921   2794.992   4.129548    1728914   26.81660
  2097.618   229.1970   743.3807   2795.036   4.128915    1730572   26.81673
  2099.112   229.1970   743.3756   2794.992   4.130245    1730762   26.81685
  2100.618   229.1940   743.3668   2795.055   4.129549    1731180   26.81761
  2102.123   229.1930   743.3642   2794.992   4.129168    1729889   26.81679
  2103.620   229.1910   743.3585   2795.042   4.129738    1731129   26.81660
  2105.118   229.1910   743.3522   2795.004   4.130055    1731015   26.81698
  2107.110   229.1900   743.3414   2795.017   4.129865    1729965   26.81730
  2108.689   229.1880   743.3357   2795.061   4.130245    1732420   26.81698
  2110.620   229.1870   743.3268   2794.992   4.129992    1730623   26.81704
  2112.117   229.1870   743.3230   2795.068   4.129611    1732737   26.81742
  2113.697   229.1850   743.3192   2795.011   4.130055    1731269   26.81679
  2115.618   229.1830   743.3091   2795.068   4.129991    1732205   26.81654
  2117.617   229.1810   743.3015   2795.042   4.129358    1732636   26.81774
  2119.118   229.1810   743.2964   2795.055   4.129169    1732256   26.81736
  2120.617   229.1800   743.2906   2795.030   4.129548    1732167   26.81755
  2122.618   229.1800   743.2824   2795.042   4.129358    1731623   26.81685
  2124.118   229.1780   743.2799   2795.055   4.129231    1733193   26.81647
  2125.608   229.1770   743.2729   2795.068   4.129549    1731560   26.81603
  2128.117   229.1750   743.2628   2795.061   4.129485    1733218   26.81736
  2129.609   229.1740   743.2596   2795.030   4.129485    1732737   26.81685
  2131.117   229.1720   743.2558   2795.093   4.128725    1734117   26.81704
  2132.619   229.1720   743.2482   2795.061   4.128915    1732129   26.81679
  2134.117   229.1720   743.2444   2795.074   4.129042    1733864   26.81698
  2135.611   229.1700   743.2393   2795.036   4.128915    1732471   26.81692
  2137.118   229.1700   743.2361   2795.055   4.129549    1733560   26.81723
  2138.626   229.1670   743.2292   2795.099   4.128408    1734699   26.81692
  2140.118   229.1670   743.2241   2795.042   4.129359    1732940   26.81660
  2141.616   229.1670   743.2203   2795.093   4.129359    1734041   26.81710
  2143.430   229.1660   743.2146   2795.093   4.129738    1734661   26.81672
  2145.111   229.1670   743.2095   2795.106   4.128915    1734332   26.81660
  2146.618   229.1640   743.2057   2795.049   4.129485    1733598   26.81730
  2148.618   229.1620   743.1994   2795.093   4.129168    1734028   26.81742
  2150.115   229.1620   743.1962   2795.074   4.129295    1734826   26.81704
  2151.609   229.1620   743.1905   2795.099   4.129485    1733813   26.81704
  2153.117   229.1600   743.1874   2795.061   4.129358    1734180   26.81692
  2154.617   229.1580   743.1816   2795.093   4.128978    1734686   26.81628
  2156.115   229.1570   743.1797   2795.061   4.128851    1734686   26.81685
  2157.609   229.1590   743.1734   2795.112   4.129231    1735168   26.81704
  2159.115   229.1580   743.1709   2795.061   4.128472    1734294   26.81730
  2160.689   229.1560   743.1664   2795.131   4.128598    1735560   26.81755
  2162.615   229.1560   743.1601   2795.074   4.128219    1735421   26.81672
  2164.617   229.1540   743.1563   2795.106   4.129295    1734421   26.81692
  2166.116   229.1550   743.1525   2795.099   4.128535    1735902   26.81679
  2167.609   229.1530   743.1487   2795.087   4.128852    1734383   26.81704
  2169.191   229.1530   743.1423   2795.106   4.128788    1736256   26.81736
  2171.109   229.1520   743.1398   2795.093   4.129485    1734623   26.81685
  2172.617   229.1510   743.1354   2795.125   4.128472    1736446   26.81597
  2174.123   229.1490   743.1322   2795.055   4.129991    1734686   26.81806
  2175.615   229.1490   743.1290   2795.131   4.128154    1737092   26.81692
  2177.115   229.1490   743.1265   2795.068   4.128409    1734648   26.81723
  2178.617   229.1490   743.1221   2795.112   4.129105    1736813   26.81761
  2180.123   229.1490   743.1189   2795.093   4.128978    1735142   26.81672
  2181.619   229.1480   743.1144   2795.125   4.128472    1736889   26.81755
  2183.107   229.1460   743.1125   2795.093   4.129169    1735066   26.81672
  2185.114   229.1470   743.1062   2795.125   4.129295    1736990   26.81767
  2186.615   229.1440   743.1043   2795.099   4.128851    1735319   26.81654
  2188.609   229.1440   743.0967   2795.131   4.129168    1737674   26.81742
  2190.114   229.1420   743.0967   2795.112   4.128344    1735598   26.81692
  2191.616   229.1430   743.0936   2795.118   4.128788    1736788   26.81647
  2193.113   229.1430   743.0897   2795.125   4.128535    1736180   26.81723
  2194.613   229.1410   743.0872   2795.099   4.128471    1737130   26.81698
  2196.114   229.1420   743.0821   2795.163   4.128471    1737066   26.81666
  2197.607   229.1410   743.0809   2795.106   4.129232    1737130   26.81666
  2199.114   229.1410   743.0783   2795.131   4.128219    1736687   26.81692
  2200.608   229.1390   743.0764   2795.118   4.128725    1737421   26.81635
  2202.115   229.1420   743.0745   2795.169   4.129042    1738066   26.81723
  2203.616   229.1390   743.0720   2795.087   4.128471    1735788   26.81654
  2205.114   229.1380   743.0682   2795.131   4.129168    1737826   26.81647
  2206.609   229.1380   743.0663   2795.074   4.128408    1736383   26.81685
  2208.322   229.1370   743.0605   2795.055   4.128218    1736383   26.81710
  2210.133   229.1360   743.0580   2795.137   4.128535    1736674   26.81660
  2211.629   229.1370   743.0580   2795.118   4.128852    1737763   26.81730
  2213.122   229.1360   743.0568   2795.125   4.128344    1736674   26.81761
  2214.615   229.1360   743.0536   2795.137   4.128598    1738218   26.81749
  2216.107   229.1340   743.0498   2795.137   4.128915    1736674   26.81647
  2217.606   229.1340   743.0485   2795.118   4.128028    1738092   26.81666
  2219.112   229.1340   743.0466   2795.150   4.128282    1737358   26.81736
  2220.614   229.1320   743.0441   2795.099   4.129232    1737725   26.81666
  2222.119   229.1320   743.0410   2795.144   4.128725    1738914   26.81704
  2223.613   229.1330   743.0377   2795.106   4.128408    1736573   26.81679
  2225.105   229.1340   743.0365   2795.150   4.128535    1738396   26.81597
  2226.615   229.1320   743.0352   2795.087   4.128788    1736914   26.81749
  2228.106   229.1320   743.0320   2795.156   4.128091    1738750   26.81711
  2229.613   229.1310   743.0283   2795.163   4.128282    1738269   26.81704
  2231.107   229.1320   743.0289   2795.125   4.128978    1737965   26.81698
  2232.614   229.1320   743.0264   2795.150   4.128408    1738560   26.81730
  2234.120   229.1300   743.0244   2795.093   4.128408    1737028   26.81710
  2235.616   229.1320   743.0232   2795.169   4.128725    1739269   26.81730
  2237.108   229.1300   743.0219   2795.099   4.127395    1736800   26.81666
  2239.114   229.1290   743.0181   2795.156   4.128282    1739041   26.81672
  2240.613   229.1290   743.0162   2795.093   4.127902    1737193   26.81654
  2242.126   229.1300   743.0181   2795.125   4.128408    1738294   26.81635
  2243.612   229.1300   743.0137   2795.144   4.128535    1737990   26.81647
  2245.113   229.1280   743.0137   2795.131   4.127965    1738092   26.81628
  2247.615   229.1280   743.0092   2795.106   4.127965    1737358   26.81730
  2249.122   229.1270   743.0092   2795.125   4.128345    1738510   26.81666
  2250.614   229.1270   743.0079   2795.182   4.128534    1738914   26.81723
  2252.238   229.1270   743.0060   2795.156   4.128852    1738851   26.81730
  2254.114   229.1260   743.0035   2795.144   4.128155    1738472   26.81685
  2255.613   229.1270   743.0029   2795.112   4.128535    1738092   26.81710
  2257.106   229.1250   743.0010   2795.182   4.127648    1739396   26.81666
  2259.125   229.1260   743.0004   2795.106   4.128661    1737383   26.81672
  2260.614   229.1260   742.9978   2795.163   4.128091    1739016   26.81603
  2262.361   229.1230   742.9997   2795.125   4.128282    1738256   26.81730
  2264.158   229.1240   742.9965   2795.118   4.128218    1738636   26.81685
  2266.156   229.1250   742.9946   2795.163   4.128852    1737927   26.81704
  2268.112   229.1240   742.9959   2795.093   4.128725    1737699   26.81577
  2269.650   229.1240   742.9927   2795.087   4.128788    1737801   26.81717
  2271.703   229.1240   742.9940   2795.093   4.128725    1737763   26.81641
  2273.609   229.1240   742.9915   2795.156   4.128154    1738712   26.81692
  2275.114   229.1240   742.9908   2795.093   4.128344    1738130   26.81710
  2276.614   229.1230   742.9902   2795.176   4.129169    1740016   26.81666
  2278.112   229.1230   742.9896   2795.106   4.128598    1737446   26.81672
  2279.604   229.1230   742.9890   2795.156   4.127775    1739661   26.81679
  2281.110   229.1240   742.9883   2795.131   4.128471    1738231   26.81673
  2282.683   229.1230   742.9871   2795.156   4.128661    1739206   26.81723
  2284.612   229.1230   742.9871   2795.182   4.128091    1739294   26.81717
  2286.185   229.1230   742.9858   2795.131   4.128155    1739016   26.81717
  2288.106   229.1240   742.9858   2795.144   4.128598    1738585   26.81647
  2289.612   229.1220   742.9864   2795.080   4.128472    1737750   26.81723
  2291.111   229.1230   742.9852   2795.169   4.128535    1739775   26.81692
  2292.609   229.1220   742.9871   2795.137   4.128408    1737978   26.81730
  2294.112   229.1230   742.9839   2795.125   4.127965    1738636   26.81628
  2295.616   229.1230   742.9832   2795.137   4.128281    1739307   26.81710
  2297.104   229.1240   742.9839   2795.112   4.128218    1738649   26.81761
  2299.112   229.1230   742.9826   2795.176   4.128155    1739990   26.81749
  2300.620   229.1220   742.9839   2795.150   4.128915    1737826   26.81666
  2302.110   229.1240   742.9820   2795.144   4.128345    1739408   26.81685
  2304.110   229.1240   742.9820   2795.106   4.127838    1737788   26.81666
  2305.611   229.1230   742.9820   2795.118   4.128345    1738889   26.81673
  2307.108   229.1220   742.9832   2795.169   4.128155    1739965   26.81780
  2309.110   229.1230   742.9826   2795.099   4.127965    1738041   26.81641
  2310.608   229.1220   742.9839   2795.144   4.128534    1739522   26.81666
  2312.104   229.1220   742.9845   2795.074   4.127521    1737737   26.81622
  2313.610   229.1240   742.9839   2795.131   4.128155    1739510   26.81679
  2315.101   229.1220   742.9826   2795.144   4.128218    1738408   26.81710
  2316.611   229.1230   742.9839   2795.099   4.128534    1737598   26.81641
  2318.109   229.1230   742.9845   2795.150   4.128218    1739586   26.81672
  2319.683   229.1230   742.9839   2795.112   4.128092    1737358   26.81698
  2321.611   229.1230   742.9845   2795.156   4.128345    1739699   26.81723
  2323.110   229.1230   742.9845   2795.131   4.128662    1738155   26.81730
  2324.609   229.1240   742.9852   2795.125   4.128091    1738889   26.81666
  2326.109   229.1230   742.9845   2795.150   4.128155    1738889   26.81755
  2327.614   229.1220   742.9877   2795.068   4.128344    1737573   26.81710
  2329.278   229.1230   742.9883   2795.163   4.127332    1739750   26.81799
  2331.119   229.1250   742.9877   2795.099   4.127775    1737573   26.81736
  2332.604   229.1240   742.9883   2795.131   4.128154    1739231   26.81666
  2334.103   229.1250   742.9871   2795.112   4.128281    1737687   26.81660
  2335.611   229.1230   742.9896   2795.080   4.128408    1737914   26.81710
  2337.109   229.1240   742.9908   2795.156   4.128155    1739763   26.81660
  2338.755   229.1240   742.9908   2795.099   4.128028    1737573   26.81710
  2340.609   229.1230   742.9927   2795.118   4.127902    1738902   26.81654
  2342.109   229.1250   742.9908   2795.144   4.128915    1738623   26.81710
  2343.609   229.1250   742.9921   2795.055   4.127775    1737484   26.81685
  2345.602   229.1240   742.9934   2795.137   4.127584    1739623   26.81710
  2347.112   229.1260   742.9946   2795.125   4.127648    1737914   26.81717
  2348.746   229.1250   742.9953   2795.150   4.128345    1739066   26.81723
  2350.602   229.1250   742.9972   2795.118   4.127585    1738155   26.81647
  2352.109   229.1260   742.9997   2795.061   4.128535    1737256   26.81679
  2353.609   229.1260   743.0010   2795.144   4.128408    1739168   26.81571
  2355.107   229.1260   742.9991   2795.137   4.128281    1738510   26.81692
  2356.609   229.1260   743.0016   2795.080   4.127774    1736965   26.81692
  2358.108   229.1250   743.0010   2795.125   4.127901    1738877   26.81615
  2359.609   229.1270   743.0035   2795.093   4.127648    1737750   26.81603
  2361.115   229.1280   743.0054   2795.049   4.128598    1737282   26.81698
  2362.607   229.1280   743.0048   2795.144   4.128281    1739484   26.81717
  2364.108   229.1260   743.0092   2795.099   4.128281    1737206   26.81730
  2366.051   229.1290   743.0099   2795.049   4.127585    1737016   26.81666
  2367.621   229.1290   743.0105   2795.125   4.127965    1738813   26.81609
  2369.226   229.1280   743.0124   2795.144   4.128472    1739104   26.81730
  2371.360   229.1280   743.0137   2795.131   4.128091    1738801   26.81654
  2373.108   229.1290   743.0162   2795.080   4.127901    1736813   26.81654
  2374.608   229.1290   743.0181   2795.099   4.127711    1737965   26.81647
  2376.099   229.1280   743.0181   2795.099   4.128408    1738066   26.81755
  2377.609   229.1300   743.0200   2795.055   4.128028    1736775   26.81749
  2379.256   229.1310   743.0219   2795.137   4.128471    1739345   26.81654
  2381.101   229.1310   743.0232   2795.131   4.129295    1738130   26.81666
  2382.608   229.1310   743.0257   2795.068   4.128281    1736320   26.81755
  2384.106   229.1300   743.0276   2795.099   4.127458    1738003   26.81723
  2385.606   229.1300   743.0295   2795.112   4.128154    1738142   26.81666
  2387.178   229.1320   743.0320   2795.068   4.128598    1736788   26.81654
  2389.243   229.1320   743.0339   2795.099   4.128535    1737332   26.81723
  2391.178   229.1340   743.0358   2795.036   4.128028    1736509   26.81552
  2393.180   229.1320   743.0365   2795.112   4.127712    1738585   26.81704
  2395.113   229.1330   743.0409   2795.099   4.129105    1737914   26.81672
  2396.609   229.1330   743.0409   2795.017   4.128788    1736294   26.81723
  2398.107   229.1340   743.0441   2795.099   4.128282    1738269   26.81749
  2399.607   229.1350   743.0460   2795.106   4.127964    1738104   26.81723
  2401.112   229.1350   743.0492   2795.061   4.127838    1735965   26.81698
  2402.613   229.1350   743.0511   2795.080   4.128598    1737282   26.81742
  2404.107   229.1360   743.0511   2795.068   4.128218    1737585   26.81628
  2405.606   229.1360   743.0543   2795.023   4.127712    1735940   26.81704
  2407.106   229.1370   743.0555   2795.074   4.127965    1737636   26.81704
  2408.615   229.1380   743.0580   2795.112   4.128471    1738320   26.81679
  2410.105   229.1380   743.0612   2795.042   4.129295    1735750   26.81717
  2411.606   229.1380   743.0644   2795.061   4.128344    1736737   26.81672
  2413.115   229.1380   743.0644   2795.087   4.127964    1737699   26.81723
  2414.605   229.1390   743.0676   2795.017   4.128661    1735851   26.81679
  2416.099   229.1390   743.0707   2795.055   4.129105    1736978   26.81723
  2417.608   229.1380   743.0720   2795.099   4.127965    1737864   26.81685
  2419.261   229.1400   743.0739   2795.030   4.128598    1735484   26.81635
  2421.109   229.1400   743.0777   2795.030   4.128915    1735332   26.81755
  2422.719   229.1390   743.0796   2795.030   4.128409    1735800   26.81710
  2424.618   229.1420   743.0815   2795.061   4.128598    1736813   26.81761
  2426.108   229.1410   743.0859   2795.017   4.128155    1735686   26.81628
  2427.691   229.1440   743.0878   2795.074   4.128978    1737130   26.81660
  2429.599   229.1440   743.0897   2795.042   4.128218    1735155   26.81723
  2431.106   229.1440   743.0961   2795.036   4.129169    1735345   26.81749
  2432.606   229.1440   743.0948   2795.080   4.129232    1737003   26.81692
  2434.116   229.1450   743.0986   2795.061   4.128028    1735800   26.81749
  2435.607   229.1440   743.1017   2795.004   4.128852    1735509   26.81641
  2437.106   229.1470   743.1024   2795.068   4.128535    1737244   26.81660
  2438.615   229.1460   743.1062   2795.099   4.128661    1737117   26.81660
  2440.107   229.1460   743.1100   2795.004   4.128534    1734522   26.81685
  2441.605   229.1460   743.1119   2795.061   4.128155    1736294   26.81615
  2443.879   229.1490   743.1163   2795.068   4.128282    1737130   26.81710
  2445.617   229.1470   743.1189   2794.966   4.128599    1734699   26.81615
  2447.110   229.1490   743.1215   2795.068   4.127965    1736598   26.81698
  2448.606   229.1480   743.1240   2795.055   4.128725    1736231   26.81749
  2450.104   229.1490   743.1296   2795.004   4.128408    1734066   26.81660
  2451.606   229.1510   743.1309   2795.030   4.129042    1735560   26.81710
  2453.116   229.1510   743.1335   2795.042   4.128789    1736256   26.81679
  2454.597   229.1510   743.1373   2794.960   4.128092    1734117   26.81615
  2456.105   229.1510   743.1385   2795.017   4.129042    1734750   26.81672
  2457.599   229.1520   743.1404   2795.055   4.128661    1736484   26.81704
  2459.161   229.1520   743.1449   2794.992   4.128915    1734142   26.81723
  2461.106   229.1530   743.1487   2794.992   4.128535    1733952   26.81679
  2462.604   229.1540   743.1525   2795.036   4.128789    1735800   26.81742
  2464.214   229.1550   743.1563   2795.036   4.128599    1736041   26.81672
  2466.108   229.1560   743.1588   2794.960   4.128472    1734168   26.81730
  2467.602   229.1570   743.1614   2795.049   4.128978    1736016   26.81704
  2469.176   229.1570   743.1671   2794.947   4.128472    1733509   26.81565
  2471.105   229.1570   743.1702   2794.998   4.129042    1733978   26.81685
  2472.606   229.1580   743.1740   2795.011   4.129612    1735370   26.81717
  2474.120   229.1590   743.1772   2795.004   4.128661    1734889   26.81717
  2475.603   229.1600   743.1823   2794.992   4.129232    1734256   26.81666
  2477.105   229.1590   743.1842   2795.042   4.129232    1735611   26.81628
  2478.605   229.1610   743.1880   2794.998   4.128978    1734180   26.81710
  2480.607   229.1610   743.1899   2795.004   4.128408    1733598   26.81698
  2482.103   229.1630   743.1956   2794.992   4.128725    1734914   26.81666
  2483.605   229.1630   743.1987   2794.941   4.128535    1733167   26.81730
  2485.797   229.1640   743.2026   2794.916   4.128599    1732648   26.81704
  2487.611   229.1640   743.2064   2795.023   4.128472    1735028   26.81635
  2489.103   229.1660   743.2114   2794.954   4.129042    1732319   26.81660
  2490.597   229.1650   743.2127   2794.992   4.129802    1733990   26.81736
  2492.184   229.1660   743.2184   2795.004   4.129169    1734813   26.81679
  2494.097   229.1670   743.2222   2794.916   4.129358    1732180   26.81641
  2495.604   229.1680   743.2286   2794.954   4.129422    1732940   26.81698
  2497.104   229.1690   743.2298   2794.998   4.129422    1734319   26.81723
  2498.602   229.1700   743.2336   2794.985   4.129485    1733750   26.81666
  2500.343   229.1710   743.2387   2794.954   4.129358    1732598   26.81698
  2502.103   229.1710   743.2419   2794.973   4.128471    1733433   26.81692
  2503.604   229.1730   743.2444   2794.979   4.129041    1733395   26.81736
  2505.103   229.1730   743.2488   2794.884   4.129295    1731636   26.81717
  2507.097   229.1750   743.2520   2794.985   4.128662    1733686   26.81730
  2508.604   229.1740   743.2596   2794.985   4.128979    1733902   26.81730
  2510.355   229.1760   743.2628   2794.878   4.129232    1731243   26.81704
  2512.105   229.1750   743.2666   2794.954   4.129612    1732053   26.81704
  2513.602   229.1770   743.2710   2794.954   4.128282    1733180   26.81635
  2515.094   229.1770   743.2761   2794.884   4.129168    1731041   26.81749
  2516.908   229.1800   743.2792   2794.979   4.129042    1733433   26.81742
  2518.604   229.1790   743.2844   2794.954   4.128725    1732914   26.81698
  2520.304   229.1790   743.2900   2794.966   4.129421    1732648   26.81723
  2522.373   229.1820   743.2945   2794.878   4.129485    1731117   26.81692
  2524.098   229.1810   743.2983   2794.960   4.129041    1732674   26.81710
  2525.616   229.1820   743.3033   2794.941   4.128408    1732522   26.81755
  2527.103   229.1820   743.3065   2794.871   4.129675    1730281   26.81685
  2528.604   229.1850   743.3103   2794.916   4.129168    1731433   26.81698
  2530.344   229.1850   743.3160   2794.935   4.129295    1732117   26.81685
  2532.102   229.1870   743.3204   2794.909   4.129168    1731420   26.81755
  2533.596   229.1870   743.3249   2794.878   4.130308    1729699   26.81660
  2535.102   229.1880   743.3293   2794.903   4.128915    1730826   26.81654
  2536.601   229.1900   743.3337   2794.922   4.129422    1731775   26.81717
  2538.100   229.1890   743.3376   2794.903   4.129105    1730826   26.81679
  2539.625   229.1910   743.3414   2794.903   4.129359    1731066   26.81672
