# Resistivity Experiment v3.0
# 
# Data Acquisition Unit: Agilent Model 34970A
# Start Time: 1:38:51.915 PM 5/24/2018 ; Start Temp: 298.9860 K
# Time (s)   Temp (K)         R1         R2         R3         R4         R5
  0.000000   298.9860   1128.824   2703.073   5.654530   39352.16   26.89254
  1.255000   298.9870   1128.826   2703.086   5.653896   39352.80   26.89292
  2.388000   298.9840   1128.823   2703.098   5.654404   39352.80   26.89216
  3.811000   298.9840   1128.823   2703.086   5.653516   39353.87   26.89286
  5.311000   298.9860   1128.823   2703.086   5.654783   39351.79   26.89305
  6.811000   298.9840   1128.824   2703.086   5.653643   39352.61   26.89191
  8.309000   298.9850   1128.823   2703.098   5.654910   39353.30   26.89248
  9.809000   298.9840   1128.824   2703.079   5.654150   39353.37   26.89229
  11.31000   298.9850   1128.822   2703.067   5.654846   39354.44   26.89279
  12.88200   298.9850   1128.822   2703.079   5.654530   39354.70   26.89311
  14.31000   298.9860   1128.824   2703.105   5.653643   39353.30   26.89203
  15.88200   298.9850   1128.819   2703.079   5.654023   39355.01   26.89279
  17.30900   298.9850   1128.820   2703.092   5.653706   39356.46   26.89153
  18.81100   298.9850   1128.819   2703.067   5.653897   39356.21   26.89222
  20.30900   298.9840   1128.821   2703.111   5.653263   39354.63   26.89286
  21.81000   298.9830   1128.817   2703.111   5.653960   39356.97   26.89305
  23.38100   298.9840   1128.820   2703.092   5.653517   39357.09   26.89254
  24.88200   298.9840   1128.822   2703.086   5.653390   39356.78   26.89248
  26.30900   298.9840   1128.819   2703.079   5.653200   39357.41   26.89273
  27.80900   298.9830   1128.823   2703.079   5.654023   39355.89   26.89260
  29.31100   298.9830   1128.818   2703.105   5.653453   39356.59   26.89305
  30.81100   298.9840   1128.820   2703.067   5.654149   39356.09   26.89267
  32.30900   298.9840   1128.823   2703.092   5.653960   39356.34   26.89222
  33.81000   298.9840   1128.820   2703.098   5.653833   39357.66   26.89349
  35.30900   298.9820   1128.820   2703.105   5.653643   39357.66   26.89286
  37.18900   298.9830   1128.822   2703.086   5.653706   39357.35   26.89235
  38.31700   298.9830   1128.821   2703.105   5.653770   39356.97   26.89267
  39.80900   298.9810   1128.821   2703.092   5.653897   39358.23   26.89248
  41.31700   298.9820   1128.818   2703.079   5.654023   39358.11   26.89210
  42.80800   298.9820   1128.820   2703.092   5.653769   39358.86   26.89273
  44.30200   298.9810   1128.816   2703.086   5.653960   39358.17   26.89222
  45.81000   298.9820   1128.821   2703.092   5.653200   39358.68   26.89191
  47.30800   298.9810   1128.820   2703.086   5.653643   39358.61   26.89267
  48.80900   298.9830   1128.817   2703.092   5.653517   39358.11   26.89279
  50.30800   298.9800   1128.821   2703.098   5.653643   39358.93   26.89241
  51.81300   298.9820   1128.817   2703.105   5.653326   39358.86   26.89184
  53.30700   298.9820   1128.818   2703.067   5.654086   39358.93   26.89210
  54.80900   298.9800   1128.819   2703.086   5.653897   39360.00   26.89159
  56.30800   298.9810   1128.819   2703.105   5.654340   39359.81   26.89184
  57.80800   298.9800   1128.819   2703.098   5.654150   39360.06   26.89216
  59.30700   298.9800   1128.819   2703.086   5.653960   39358.80   26.89248
  60.80800   298.9800   1128.819   2703.079   5.653579   39361.58   26.89203
  62.30000   298.9810   1128.818   2703.098   5.653706   39361.96   26.89235
  63.80900   298.9800   1128.819   2703.105   5.654277   39361.27   26.89235
  65.30800   298.9800   1128.818   2703.092   5.653706   39361.71   26.89279
  66.80700   298.9790   1128.817   2703.067   5.654213   39361.45   26.89172
  68.30800   298.9800   1128.817   2703.079   5.653453   39359.68   26.89241
  69.80800   298.9790   1128.817   2703.086   5.654276   39361.96   26.89254
  71.30800   298.9810   1128.816   2703.079   5.653200   39362.40   26.89279
  72.80800   298.9790   1128.816   2703.073   5.653897   39362.15   26.89260
  74.30000   298.9790   1128.816   2703.079   5.653960   39362.84   26.89267
  75.80000   298.9790   1128.817   2703.067   5.653073   39363.66   26.89241
  77.30800   298.9780   1128.814   2703.086   5.653707   39363.29   26.89267
  78.80800   298.9780   1128.817   2703.073   5.653897   39363.10   26.89305
  80.30800   298.9780   1128.814   2703.067   5.653834   39363.48   26.89241
  81.81600   298.9780   1128.816   2703.092   5.654150   39364.43   26.89229
  83.80800   298.9790   1128.813   2703.105   5.653643   39365.62   26.89210
  85.30700   298.9770   1128.814   2703.111   5.653516   39364.43   26.89267
  86.80700   298.9770   1128.816   2703.105   5.654403   39365.94   26.89254
  88.30700   298.9780   1128.815   2703.092   5.654087   39365.05   26.89134
  89.80800   298.9770   1128.816   2703.092   5.653200   39365.62   26.89184
  91.30000   298.9770   1128.813   2703.092   5.654213   39365.81   26.89229
  92.80700   298.9770   1128.814   2703.079   5.653453   39366.64   26.89248
  94.30000   298.9780   1128.813   2703.086   5.653769   39366.32   26.89311
  95.80100   298.9770   1128.813   2703.098   5.653326   39366.13   26.89267
  97.30600   298.9780   1128.815   2703.073   5.654213   39366.51   26.89260
  98.84000   298.9760   1128.814   2703.105   5.653073   39367.27   26.89286
  100.3120   298.9770   1128.813   2703.086   5.653326   39367.46   26.89229
  101.8200   298.9760   1128.813   2703.086   5.653833   39367.46   26.89273
  103.3780   298.9750   1128.812   2703.092   5.654719   39368.40   26.89241
  104.8080   298.9760   1128.812   2703.098   5.654657   39368.09   26.89197
  106.3060   298.9760   1128.813   2703.105   5.653706   39368.40   26.89241
  107.8080   298.9760   1128.811   2703.067   5.654150   39367.77   26.89165
  109.3070   298.9750   1128.814   2703.098   5.653896   39368.15   26.89172
  110.8070   298.9750   1128.811   2703.111   5.653579   39368.47   26.89241
  112.3070   298.9770   1128.811   2703.073   5.653707   39367.64   26.89260
  114.3810   298.9760   1128.811   2703.105   5.653833   39369.41   26.89241
  115.8760   298.9760   1128.811   2703.092   5.653960   39369.10   26.89260
  117.3050   298.9760   1128.809   2703.067   5.654150   39368.47   26.89197
  118.8060   298.9750   1128.811   2703.098   5.654213   39369.67   26.89222
  120.3070   298.9750   1128.809   2703.067   5.653770   39369.92   26.89254
  121.8050   298.9770   1128.811   2703.098   5.654213   39370.23   26.89229
  123.3770   298.9760   1128.811   2703.092   5.653009   39369.86   26.89260
  125.0410   298.9750   1128.811   2703.105   5.653834   39369.29   26.89267
  126.3850   298.9750   1128.810   2703.105   5.653643   39368.47   26.89254
  127.8070   298.9740   1128.810   2703.098   5.654340   39368.85   26.89330
  129.3050   298.9740   1128.805   2703.067   5.653327   39369.41   26.89260
  130.8050   298.9760   1128.804   2703.067   5.654530   39368.28   26.89216
  132.3050   298.9740   1128.809   2703.092   5.653516   39370.30   26.89222
  133.8000   298.9750   1128.808   2703.067   5.654213   39370.87   26.89241
  135.4950   298.9750   1128.807   2703.105   5.653643   39370.74   26.89197
  136.8070   298.9730   1128.809   2703.086   5.652946   39370.68   26.89286
  138.3050   298.9740   1128.808   2703.079   5.654086   39370.87   26.89229
  139.8060   298.9730   1128.806   2703.105   5.653643   39371.37   26.89178
  141.3050   298.9730   1128.807   2703.073   5.653897   39371.06   26.89260
  142.8060   298.9720   1128.808   2703.067   5.653327   39370.36   26.89260
  144.3040   298.9720   1128.805   2703.111   5.654086   39369.92   26.89197
  145.8060   298.9730   1128.803   2703.098   5.653010   39370.68   26.89216
  147.3040   298.9700   1128.807   2703.098   5.654276   39371.37   26.89279
  148.7980   298.9730   1128.805   2703.098   5.653706   39371.50   26.89229
  150.2980   298.9730   1128.806   2703.086   5.653137   39372.26   26.89267
  151.8070   298.9730   1128.803   2703.086   5.654910   39372.83   26.89248
  153.3040   298.9720   1128.806   2703.079   5.654529   39372.26   26.89235
  154.8060   298.9720   1128.805   2703.092   5.653579   39372.83   26.89260
  156.6060   298.9720   1128.804   2703.079   5.653136   39374.09   26.89241
  157.8150   298.9710   1128.807   2703.111   5.653010   39374.28   26.89260
  159.2980   298.9730   1128.805   2703.079   5.653453   39374.60   26.89267
  160.8050   298.9710   1128.804   2703.048   5.653769   39373.33   26.89241
  162.3040   298.9710   1128.804   2703.079   5.653643   39374.03   26.89298
  163.8040   298.9720   1128.805   2703.092   5.653580   39374.22   26.89254
  165.3030   298.9720   1128.802   2703.079   5.653960   39373.84   26.89241
  166.8050   298.9710   1128.804   2703.105   5.653200   39374.66   26.89336
  168.3060   298.9720   1128.803   2703.092   5.653389   39374.98   26.89235
  169.8040   298.9710   1128.804   2703.086   5.653960   39375.48   26.89235
  171.2960   298.9710   1128.804   2703.086   5.653897   39375.92   26.89197
  172.7980   298.9700   1128.797   2703.111   5.654467   39376.81   26.89210
  174.3030   298.9700   1128.798   2703.105   5.653580   39376.49   26.89298
  175.8040   298.9710   1128.800   2703.079   5.653263   39376.11   26.89273
  177.3030   298.9700   1128.802   2703.086   5.653706   39376.49   26.89286
  178.8040   298.9700   1128.802   2703.079   5.653897   39376.55   26.89260
  180.3020   298.9710   1128.800   2703.092   5.653263   39376.43   26.89203
  181.7970   298.9700   1128.800   2703.092   5.654087   39376.87   26.89279
  183.2960   298.9690   1128.800   2703.098   5.653390   39377.69   26.89229
  184.7970   298.9700   1128.801   2703.067   5.653707   39378.07   26.89298
  186.2960   298.9700   1128.800   2703.073   5.653453   39377.69   26.89254
  187.7960   298.9690   1128.800   2703.092   5.653263   39379.46   26.89273
  189.2950   298.9700   1128.802   2703.105   5.653516   39379.59   26.89229
  190.8050   298.9690   1128.800   2703.098   5.653073   39378.57   26.89254
  192.6140   298.9690   1128.795   2703.067   5.653263   39379.59   26.89191
  193.8250   298.9680   1128.799   2703.105   5.653326   39378.95   26.89292
  195.3030   298.9680   1128.799   2703.073   5.654150   39379.59   26.89203
  196.8050   298.9680   1128.799   2703.073   5.653390   39379.71   26.89241
  198.3030   298.9670   1128.800   2703.105   5.653833   39379.96   26.89229
  199.8030   298.9690   1128.796   2703.117   5.653770   39380.03   26.89210
  201.2960   298.9680   1128.790   2703.092   5.653389   39379.34   26.89248
  203.1020   298.9670   1128.798   2703.048   5.653769   39379.59   26.89216
  204.3080   298.9680   1128.800   2703.098   5.654213   39378.89   26.89229
  205.8020   298.9690   1128.797   2703.092   5.653580   39379.65   26.89235
  207.3030   298.9690   1128.798   2703.092   5.653326   39380.34   26.89254
  208.8030   298.9690   1128.796   2703.086   5.653073   39380.16   26.89222
  210.2950   298.9670   1128.797   2703.079   5.653453   39381.36   26.89260
  211.7960   298.9690   1128.797   2703.092   5.653579   39380.66   26.89216
  213.4340   298.9670   1128.797   2703.105   5.653516   39381.23   26.89254
  214.8050   298.9670   1128.797   2703.098   5.653706   39381.16   26.89330
  216.3020   298.9670   1128.797   2703.098   5.653390   39382.24   26.89216
  217.8030   298.9680   1128.796   2703.098   5.653137   39381.67   26.89254
  219.3010   298.9680   1128.795   2703.092   5.653579   39382.75   26.89260
  220.8030   298.9650   1128.796   2703.079   5.653137   39381.86   26.89311
  222.3020   298.9690   1128.795   2703.079   5.653960   39382.75   26.89298
  223.8030   298.9660   1128.791   2703.086   5.653137   39380.98   26.89248
  225.2940   298.9670   1128.794   2703.086   5.653706   39382.93   26.89254
  226.8050   298.9660   1128.793   2703.079   5.654023   39382.49   26.89184
  228.2940   298.9660   1128.795   2703.092   5.653453   39382.75   26.89184
  229.8020   298.9670   1128.794   2703.067   5.654403   39383.76   26.89184
  231.3010   298.9660   1128.793   2703.111   5.653327   39383.63   26.89210
  232.8040   298.9660   1128.793   2703.105   5.653643   39383.32   26.89305
  234.2920   298.9660   1128.792   2703.067   5.654150   39383.25   26.89292
  235.8030   298.9660   1128.793   2703.092   5.653643   39383.32   26.89216
  237.3000   298.9660   1128.791   2703.098   5.653516   39384.32   26.89222
  238.7960   298.9650   1128.794   2703.105   5.653137   39384.58   26.89279
  240.3000   298.9660   1128.791   2703.098   5.653896   39384.96   26.89286
  241.8020   298.9650   1128.791   2703.073   5.653580   39385.15   26.89197
  243.3020   298.9660   1128.792   2703.086   5.653579   39384.52   26.89254
  244.8020   298.9650   1128.791   2703.105   5.654023   39385.15   26.89254
  246.3020   298.9640   1128.793   2703.098   5.653896   39385.09   26.89241
  247.8020   298.9640   1128.788   2703.086   5.653643   39385.78   26.89311
  249.3000   298.9650   1128.791   2703.079   5.653580   39385.53   26.89298
  250.7950   298.9650   1128.791   2703.098   5.653770   39384.96   26.89229
  252.2930   298.9660   1128.791   2703.098   5.653770   39385.71   26.89292
  253.8020   298.9640   1128.792   2703.073   5.653643   39384.58   26.89184
  255.3000   298.9630   1128.791   2703.111   5.653580   39386.35   26.89286
  256.8000   298.9630   1128.790   2703.086   5.653389   39386.22   26.89298
  258.3010   298.9650   1128.790   2703.098   5.653263   39386.29   26.89279
  259.9310   298.9640   1128.789   2703.105   5.653769   39387.23   26.89254
  261.3030   298.9640   1128.789   2703.111   5.653706   39387.48   26.89273
  262.8030   298.9640   1128.787   2703.098   5.653326   39386.85   26.89267
  264.2990   298.9630   1128.788   2703.067   5.653136   39387.55   26.89229
  265.7950   298.9620   1128.789   2703.073   5.653073   39387.80   26.89273
  267.2940   298.9640   1128.788   2703.067   5.653516   39387.93   26.89203
  268.8010   298.9620   1128.788   2703.073   5.652819   39388.05   26.89216
  270.3020   298.9630   1128.788   2703.092   5.653453   39387.86   26.89267
  271.8010   298.9640   1128.786   2703.086   5.653263   39387.99   26.89235
  273.2990   298.9630   1128.788   2703.086   5.653516   39388.43   26.89317
  274.8000   298.9620   1128.786   2703.098   5.653643   39388.50   26.89279
  276.2990   298.9640   1128.787   2703.098   5.653769   39388.24   26.89311
  277.8010   298.9650   1128.786   2703.092   5.653263   39388.12   26.89267
  279.2990   298.9620   1128.788   2703.105   5.653770   39389.76   26.89235
  280.9170   298.9630   1128.783   2703.105   5.653390   39388.37   26.89203
  282.2930   298.9620   1128.788   2703.086   5.653453   39389.32   26.89140
  283.8000   298.9610   1128.786   2703.079   5.653389   39390.20   26.89235
  285.2990   298.9610   1128.785   2703.054   5.654087   39391.65   26.89254
  286.8010   298.9630   1128.786   2703.067   5.653073   39391.53   26.89273
  288.3000   298.9620   1128.784   2703.073   5.653706   39391.53   26.89286
  289.8000   298.9620   1128.785   2703.086   5.653706   39391.59   26.89286
  291.2990   298.9620   1128.785   2703.111   5.653327   39391.02   26.89197
  292.7990   298.9610   1128.785   2703.092   5.653707   39391.46   26.89305
  294.2990   298.9610   1128.785   2703.105   5.653833   39391.97   26.89273
  296.2880   298.9610   1128.785   2703.092   5.652249   39391.27   26.89216
  297.7920   298.9620   1128.783   2703.098   5.653580   39391.65   26.89311
  299.2990   298.9600   1128.784   2703.117   5.653706   39390.96   26.89210
  300.8000   298.9600   1128.783   2703.086   5.652946   39391.91   26.89216
  302.3170   298.9610   1128.781   2703.086   5.653579   39391.97   26.89241
  303.7990   298.9610   1128.782   2703.105   5.653833   39392.73   26.89273
  305.2990   298.9600   1128.784   2703.060   5.653769   39391.72   26.89260
  306.7920   298.9610   1128.779   2703.111   5.654213   39392.79   26.89235
  308.2970   298.9620   1128.784   2703.098   5.653516   39393.55   26.89305
  309.7990   298.9610   1128.783   2703.060   5.653580   39392.66   26.89203
  311.2920   298.9600   1128.782   2703.092   5.653959   39392.98   26.89222
  312.7980   298.9610   1128.782   2703.092   5.653453   39393.42   26.89260
  314.3020   298.9590   1128.781   2703.079   5.653896   39393.17   26.89267
  315.7960   298.9610   1128.781   2703.079   5.653453   39394.12   26.89292
  317.2980   298.9590   1128.781   2703.067   5.653453   39394.12   26.89267
  318.7990   298.9610   1128.782   2703.086   5.653833   39393.80   26.89254
  320.3700   298.9600   1128.779   2703.105   5.653643   39393.74   26.89292
  322.1060   298.9600   1128.781   2703.073   5.653453   39393.93   26.89254
  323.3090   298.9590   1128.778   2703.105   5.653580   39394.62   26.89355
  324.8000   298.9600   1128.782   2703.105   5.653453   39394.62   26.89279
  326.2980   298.9590   1128.778   2703.105   5.653453   39395.00   26.89260
  327.7990   298.9610   1128.779   2703.105   5.654213   39395.51   26.89260
  329.2980   298.9580   1128.776   2703.111   5.654340   39396.02   26.89273
  330.7980   298.9610   1128.779   2703.098   5.653580   39396.02   26.89286
  332.4810   298.9580   1128.778   2703.098   5.654086   39396.14   26.89229
  333.7990   298.9580   1128.778   2703.092   5.653200   39395.57   26.89229
  335.2980   298.9590   1128.778   2703.073   5.653327   39396.02   26.89267
  336.7980   298.9610   1128.774   2703.073   5.654086   39395.51   26.89248
  338.2980   298.9590   1128.777   2703.073   5.652756   39396.52   26.89273
  339.8700   298.9590   1128.774   2703.079   5.653453   39396.96   26.89235
  341.3700   298.9590   1128.778   2703.079   5.653453   39396.46   26.89229
  342.8700   298.9580   1128.777   2703.060   5.652757   39396.77   26.89279
  344.2970   298.9590   1128.776   2703.098   5.653453   39396.64   26.89267
  345.7990   298.9590   1128.777   2703.098   5.653707   39397.59   26.89267
  347.2990   298.9580   1128.777   2703.092   5.653137   39396.58   26.89222
  348.7990   298.9580   1128.773   2703.079   5.653896   39397.09   26.89178
  350.3680   298.9590   1128.776   2703.098   5.652503   39397.21   26.89279
  351.7980   298.9580   1128.774   2703.079   5.653389   39397.59   26.89254
  353.7970   298.9560   1128.775   2703.111   5.653580   39397.40   26.89235
  355.2970   298.9580   1128.776   2703.117   5.653516   39396.84   26.89191
  356.8700   298.9580   1128.774   2703.086   5.654023   39397.97   26.89292
  358.4050   298.9580   1128.774   2703.117   5.654023   39398.41   26.89184
  359.8760   298.9580   1128.775   2703.111   5.653263   39398.67   26.89248
  361.2970   298.9570   1128.769   2703.073   5.653580   39400.25   26.89267
  362.7960   298.9560   1128.774   2703.105   5.653516   39399.30   26.89222
  364.2890   298.9560   1128.774   2703.067   5.653770   39400.12   26.89267
  365.7980   298.9570   1128.774   2703.117   5.653010   39399.05   26.89273
  367.2960   298.9590   1128.772   2703.060   5.652757   39399.55   26.89273
  368.7890   298.9560   1128.772   2703.105   5.652567   39399.93   26.89216
  370.2910   298.9570   1128.772   2703.098   5.653579   39400.12   26.89191
  371.7970   298.9560   1128.769   2703.117   5.652820   39399.74   26.89229
  373.2960   298.9570   1128.773   2703.086   5.653453   39400.44   26.89260
  374.7890   298.9560   1128.774   2703.098   5.653390   39400.75   26.89235
  376.2980   298.9550   1128.773   2703.092   5.653769   39400.37   26.89298
  377.7970   298.9570   1128.771   2703.092   5.653389   39400.06   26.89267
  379.2950   298.9570   1128.767   2703.092   5.653453   39400.56   26.89254
  380.7950   298.9570   1128.772   2703.073   5.653770   39400.82   26.89292
  382.2970   298.9560   1128.772   2703.092   5.653263   39400.37   26.89298
  383.7970   298.9560   1128.771   2703.073   5.652946   39400.62   26.89330
  385.2950   298.9580   1128.769   2703.105   5.653453   39400.50   26.89241
  386.7900   298.9560   1128.767   2703.079   5.654783   39400.94   26.89298
  388.2960   298.9560   1128.769   2703.067   5.653769   39401.89   26.89279
  389.7960   298.9570   1128.770   2703.086   5.652883   39402.46   26.89273
  391.2950   298.9550   1128.768   2703.067   5.653453   39402.84   26.89273
  392.7960   298.9550   1128.767   2703.079   5.653136   39402.90   26.89235
  394.2880   298.9550   1128.766   2703.111   5.652946   39402.71   26.89235
  395.7970   298.9550   1128.767   2703.105   5.653390   39402.46   26.89210
  397.2950   298.9550   1128.770   2703.073   5.654657   39403.28   26.89298
  398.7960   298.9550   1128.767   2703.079   5.654529   39403.41   26.89298
  400.2950   298.9560   1128.768   2703.117   5.654276   39403.03   26.89235
  401.7960   298.9550   1128.766   2703.098   5.653073   39403.28   26.89260
  403.2940   298.9540   1128.769   2703.117   5.653580   39402.14   26.89241
  404.7960   298.9540   1128.767   2703.092   5.653453   39402.21   26.89273
  406.2960   298.9530   1128.770   2703.098   5.653453   39402.02   26.89241
  407.7960   298.9540   1128.767   2703.092   5.653707   39402.71   26.89298
  409.2960   298.9540   1128.769   2703.111   5.652567   39403.34   26.89191
  410.7880   298.9550   1128.764   2703.060   5.652630   39403.53   26.89216
  412.2960   298.9540   1128.765   2703.060   5.652503   39403.09   26.89330
  413.7960   298.9530   1128.767   2703.060   5.653137   39403.53   26.89298
  415.5060   298.9550   1128.766   2703.086   5.652883   39403.41   26.89235
  416.7900   298.9540   1128.766   2703.111   5.653009   39404.16   26.89248
  418.2880   298.9540   1128.768   2703.098   5.653136   39403.60   26.89235
  419.7870   298.9520   1128.765   2703.117   5.653833   39404.16   26.89260
  421.2970   298.9510   1128.769   2703.086   5.653200   39403.53   26.89279
  422.7940   298.9530   1128.767   2703.086   5.653579   39404.16   26.89229
  424.2940   298.9520   1128.766   2703.098   5.654783   39404.42   26.89241
  425.7940   298.9520   1128.764   2703.105   5.653643   39404.92   26.89273
  427.2880   298.9540   1128.764   2703.098   5.653833   39404.48   26.89203
  428.7870   298.9530   1128.765   2703.067   5.653579   39404.16   26.89260
  430.2950   298.9520   1128.762   2703.086   5.653200   39405.62   26.89203
  431.7940   298.9540   1128.764   2703.098   5.653199   39405.68   26.89248
  433.3580   298.9540   1128.764   2703.092   5.653770   39404.23   26.89241
  434.7970   298.9520   1128.763   2703.092   5.653326   39404.10   26.89248
  436.2930   298.9530   1128.764   2703.092   5.653136   39405.68   26.89203
  437.7970   298.9530   1128.762   2703.073   5.653390   39404.80   26.89235
  439.2960   298.9530   1128.762   2703.092   5.653073   39404.67   26.89254
  441.1630   298.9520   1128.762   2703.067   5.653136   39406.63   26.89216
  442.4290   298.9530   1128.762   2703.098   5.653769   39407.13   26.89273
  443.8380   298.9520   1128.762   2703.073   5.653263   39407.13   26.89184
  445.4050   298.9510   1128.763   2703.092   5.653200   39407.20   26.89273
  446.8710   298.9520   1128.762   2703.086   5.652883   39407.45   26.89248
  448.3440   298.9510   1128.762   2703.073   5.653453   39407.77   26.89235
  449.8540   298.9530   1128.761   2703.092   5.653200   39407.64   26.89286
  451.3150   298.9510   1128.762   2703.086   5.653833   39408.02   26.89165
  452.7930   298.9540   1128.762   2703.086   5.653200   39407.95   26.89241
  454.2920   298.9510   1128.759   2703.098   5.653010   39406.88   26.89222
  455.7940   298.9500   1128.761   2703.079   5.653959   39409.03   26.89298
  457.2930   298.9520   1128.761   2703.067   5.653263   39407.70   26.89203
  458.7930   298.9510   1128.760   2703.098   5.653073   39407.13   26.89279
  460.2930   298.9500   1128.762   2703.086   5.653706   39409.28   26.89229
  461.7930   298.9500   1128.761   2703.105   5.653516   39407.95   26.89235
  463.2930   298.9500   1128.757   2703.067   5.653073   39408.52   26.89286
  464.7930   298.9500   1128.759   2703.105   5.653326   39408.34   26.89324
  466.2860   298.9510   1128.760   2703.086   5.653327   39408.78   26.89210
  467.7940   298.9500   1128.760   2703.105   5.653770   39407.45   26.89178
  469.2930   298.9500   1128.759   2703.105   5.653643   39407.77   26.89235
  470.7930   298.9520   1128.760   2703.079   5.653580   39408.21   26.89216
  472.2930   298.9490   1128.759   2703.092   5.653137   39408.27   26.89241
  473.7910   298.9510   1128.755   2703.067   5.653390   39409.09   26.89248
  475.2860   298.9490   1128.758   2703.111   5.653833   39409.16   26.89260
  476.9810   298.9510   1128.758   2703.079   5.652820   39409.09   26.89349
  478.2930   298.9500   1128.758   2703.073   5.653263   39410.23   26.89248
  479.7940   298.9500   1128.757   2703.092   5.653516   39409.66   26.89273
  481.2920   298.9490   1128.757   2703.105   5.653327   39409.66   26.89279
  482.7920   298.9510   1128.757   2703.092   5.653389   39409.66   26.89317
  484.2920   298.9500   1128.755   2703.079   5.653706   39409.85   26.89254
  485.7940   298.9510   1128.757   2703.086   5.653073   39410.80   26.89298
  487.3430   298.9480   1128.754   2703.105   5.652883   39409.91   26.89210
  488.7900   298.9480   1128.756   2703.092   5.653263   39410.61   26.89286
  490.2920   298.9490   1128.756   2703.067   5.653263   39411.43   26.89235
  491.7860   298.9480   1128.755   2703.105   5.654023   39410.67   26.89248
  493.2900   298.9500   1128.753   2703.086   5.652693   39410.99   26.89229
  494.7910   298.9500   1128.756   2703.079   5.652503   39410.80   26.89210
  496.2840   298.9490   1128.754   2703.098   5.652820   39410.93   26.89248
  497.7930   298.9490   1128.752   2703.073   5.652883   39411.37   26.89267
  499.2920   298.9480   1128.755   2703.079   5.653199   39412.25   26.89248
  500.7920   298.9490   1128.753   2703.111   5.653517   39411.75   26.89229
  502.2900   298.9480   1128.753   2703.092   5.653199   39412.44   26.89241
  503.7920   298.9490   1128.755   2703.098   5.653390   39413.32   26.89210
  505.2920   298.9500   1128.752   2703.111   5.653137   39412.95   26.89279
  506.7920   298.9480   1128.754   2703.079   5.653516   39412.50   26.89260
  508.2840   298.9480   1128.753   2703.105   5.652883   39412.50   26.89305
  509.7930   298.9480   1128.754   2703.073   5.653896   39413.39   26.89267
  511.2920   298.9490   1128.752   2703.111   5.653896   39413.45   26.89235
